timestep,H(t)_mean,H(t)_err
2.000000000000000111e-01,7.802811999999998971e-01,1.040730243627042929e-03
4.000000000000000222e-01,5.991998000000000602e-01,3.552099821232501675e-03
5.999999999999999778e-01,4.734817999999999527e-01,5.040943804487410702e-03
8.000000000000000444e-01,3.968547999999999520e-01,5.653913170539494847e-03
1.000000000000000000e+00,3.380583999999999811e-01,5.840883465709612206e-03
1.199999999999999956e+00,2.977690000000000059e-01,5.208717356509184014e-03
1.399999999999999911e+00,2.644836000000000409e-01,3.178940398937988437e-03
1.600000000000000089e+00,2.389384000000000230e-01,4.759266084177263094e-03
1.800000000000000044e+00,2.159300000000000108e-01,1.825694278897755252e-03
2.000000000000000000e+00,1.969411999999999829e-01,2.483641326761979427e-03
2.200000000000000178e+00,1.787751999999999675e-01,2.935004589434229028e-03
2.399999999999999911e+00,1.642296000000000034e-01,4.048063791493410925e-03
2.600000000000000089e+00,1.490324000000000093e-01,3.083100072978490949e-03
2.799999999999999822e+00,1.361007999999999940e-01,2.532505289234359119e-03
3.000000000000000000e+00,1.277803999999999607e-01,1.949414337692220115e-03
3.200000000000000178e+00,1.173285999999999774e-01,2.854484026930260553e-03
3.399999999999999911e+00,1.088682000000000122e-01,2.830648113065274869e-03
3.600000000000000089e+00,1.011012000000000022e-01,2.172519698414722249e-03
3.799999999999999822e+00,9.227339999999999154e-02,1.816128811510901633e-03
4.000000000000000000e+00,8.727360000000000673e-02,1.663484012547158854e-03
4.200000000000000178e+00,8.153600000000001125e-02,2.145411988406887432e-03
4.400000000000000355e+00,7.715759999999999286e-02,2.571138825501260820e-03
4.599999999999999645e+00,7.095160000000000355e-02,1.933279457295296886e-03
4.799999999999999822e+00,6.901619999999999977e-02,2.111665442251682741e-03
5.000000000000000000e+00,6.513140000000000596e-02,1.891400317225309935e-03
5.200000000000000178e+00,6.315099999999999880e-02,1.734707641073850084e-03
5.400000000000000355e+00,5.912099999999999994e-02,1.921809850115249697e-03
5.599999999999999645e+00,5.673439999999999733e-02,1.874873665077195998e-03
5.799999999999999822e+00,5.414480000000000681e-02,1.467656478880531058e-03
6.000000000000000000e+00,5.195819999999999605e-02,1.965493917568813045e-03
6.200000000000000178e+00,4.875780000000000391e-02,1.148873291533927549e-03
6.400000000000000355e+00,4.643100000000000005e-02,1.229552398232787534e-03
6.599999999999999645e+00,4.492699999999999472e-02,1.103874222907664029e-03
6.799999999999999822e+00,4.568259999999999682e-02,1.547308068873163526e-03
7.000000000000000000e+00,4.288280000000000564e-02,1.588202046340452022e-03
7.200000000000000178e+00,4.129999999999999644e-02,2.020435274885091798e-03
7.400000000000000355e+00,3.939479999999999371e-02,8.110192599439295085e-04
7.599999999999999645e+00,3.716619999999999646e-02,1.163980644168965788e-03
7.799999999999999822e+00,3.634860000000000174e-02,9.098482071202870607e-04
8.000000000000000000e+00,3.421760000000000079e-02,6.560120120851443883e-04
8.199999999999999289e+00,3.231939999999999813e-02,1.480234055816849600e-03
8.400000000000000355e+00,3.004379999999999898e-02,7.499095545464133390e-04
8.599999999999999645e+00,2.934879999999999781e-02,1.510614987347868145e-03
8.800000000000000711e+00,2.826479999999999965e-02,8.267320847771663511e-04
9.000000000000000000e+00,2.711339999999999931e-02,8.805708148695366548e-04
9.199999999999999289e+00,2.663320000000000271e-02,5.559673911300916241e-04
9.400000000000000355e+00,2.568060000000000481e-02,9.082083241195270914e-04
9.599999999999999645e+00,2.409760000000000374e-02,1.418414382329790226e-03
9.800000000000000711e+00,2.340539999999999982e-02,2.023374646475535957e-03
1.000000000000000000e+01,2.375539999999999943e-02,2.021801711345601067e-03
1.019999999999999929e+01,2.252320000000000016e-02,1.833834218243295729e-03
1.040000000000000036e+01,2.225020000000000123e-02,1.773917061195364820e-03
1.059999999999999964e+01,2.149459999999999912e-02,1.432076625044903214e-03
1.080000000000000071e+01,2.042139999999999928e-02,1.122279225504954452e-03
1.100000000000000000e+01,2.061400000000000038e-02,1.246754787438171183e-03
1.119999999999999929e+01,1.945700000000000207e-02,5.701020084160376804e-04
1.140000000000000036e+01,1.945399999999999560e-02,6.938375170023598597e-04
1.159999999999999964e+01,1.870739999999999903e-02,9.647633181252279755e-04
1.180000000000000071e+01,1.679960000000000134e-02,9.789270452898928086e-04
1.200000000000000000e+01,1.673759999999999831e-02,7.689714298984066075e-04
1.219999999999999929e+01,1.611140000000000141e-02,8.247193219514138956e-04
1.240000000000000036e+01,1.529620000000000112e-02,4.245118844037231364e-04
1.259999999999999964e+01,1.611780000000000157e-02,4.018959318032471785e-04
1.280000000000000071e+01,1.665960000000000010e-02,6.524823829039373083e-04
1.300000000000000000e+01,1.699840000000000031e-02,5.789553177923147369e-04
1.319999999999999929e+01,1.555840000000000001e-02,1.052660182585054682e-03
1.340000000000000036e+01,1.535839999999999948e-02,8.831064828207300498e-04
1.359999999999999964e+01,1.515839999999999896e-02,1.027107229066177244e-03
1.380000000000000071e+01,1.460299999999999966e-02,1.352515730037917151e-03
1.400000000000000000e+01,1.392219999999999916e-02,1.502086162641810742e-03
1.419999999999999929e+01,1.344819999999999870e-02,1.710149215711892360e-03
1.440000000000000036e+01,1.249880000000000088e-02,1.292218108525027649e-03
1.459999999999999964e+01,1.277679999999999962e-02,1.167261041926783175e-03
1.480000000000000071e+01,1.276940000000000019e-02,1.198921373568759188e-03
1.500000000000000000e+01,1.215160000000000198e-02,1.348124571395388493e-03
1.519999999999999929e+01,1.175159999999999920e-02,8.862497729195758676e-04
1.540000000000000036e+01,1.134540000000000028e-02,8.747920095657023927e-04
1.559999999999999964e+01,1.051399999999999904e-02,4.410936408519170924e-04
1.580000000000000071e+01,1.023819999999999938e-02,5.294276532256319634e-04
1.600000000000000000e+01,9.828999999999999196e-03,7.824664210047608918e-04
1.619999999999999929e+01,1.010959999999999984e-02,3.631187959883100435e-04
1.639999999999999858e+01,9.763199999999999656e-03,6.036994616528989274e-04
1.660000000000000142e+01,9.708600000000001257e-03,1.096491021395068228e-03
1.680000000000000071e+01,9.983599999999998725e-03,1.118974378616418609e-03
1.700000000000000000e+01,8.681400000000000575e-03,7.043897784607610572e-04
1.719999999999999929e+01,8.336800000000000113e-03,6.291632856421297071e-04
1.739999999999999858e+01,8.000000000000000167e-03,9.157421580335810014e-04
1.760000000000000142e+01,7.868999999999999259e-03,1.005325817832209128e-03
1.780000000000000071e+01,8.275599999999999276e-03,7.075274270302178313e-04
1.800000000000000000e+01,8.469199999999999645e-03,5.030228026640541422e-04
1.819999999999999929e+01,8.267799999999998761e-03,1.202768614489087545e-03
1.839999999999999858e+01,8.812799999999999107e-03,1.054748045743626869e-03
1.860000000000000142e+01,8.603799999999999989e-03,5.809884164077628189e-04
1.880000000000000071e+01,8.331200000000000411e-03,5.447744854524668931e-04
1.900000000000000000e+01,8.269600000000000214e-03,4.183864959579838036e-04
1.919999999999999929e+01,8.332599999999999035e-03,9.026750578142723851e-04
1.939999999999999858e+01,8.126400000000000637e-03,4.936604703639942138e-04
1.960000000000000142e+01,8.538999999999999715e-03,9.184143400448402600e-04
1.980000000000000071e+01,8.616399999999999754e-03,8.411868163493766131e-04
2.000000000000000000e+01,7.933799999999999533e-03,7.211603427809934637e-04
2.019999999999999929e+01,7.592400000000000884e-03,7.392710328424887149e-04
2.039999999999999858e+01,7.863999999999999463e-03,7.966389395453877913e-04
2.060000000000000142e+01,7.315199999999999134e-03,4.935436556172108444e-04
2.080000000000000071e+01,6.285999999999999921e-03,3.648405131012727974e-04
2.100000000000000000e+01,6.353599999999999179e-03,4.471706162081761629e-04
2.119999999999999929e+01,5.948199999999998974e-03,4.585557109010856419e-04
2.139999999999999858e+01,6.694999999999999563e-03,4.702143128404323732e-04
2.160000000000000142e+01,6.424399999999999382e-03,5.104432975365629519e-04
2.180000000000000071e+01,5.403599999999999723e-03,5.068744025890437391e-04
2.200000000000000000e+01,5.406000000000000215e-03,6.640605394088703890e-04
2.219999999999999929e+01,5.466600000000000278e-03,3.529850705058218256e-04
2.239999999999999858e+01,6.008799999999999905e-03,4.846130827784160696e-04
2.260000000000000142e+01,5.662599999999999405e-03,5.876057011295924767e-04
2.280000000000000071e+01,4.911799999999999153e-03,8.956841742489370008e-04
2.300000000000000000e+01,5.393399999999999583e-03,5.253795390001403907e-04
2.319999999999999929e+01,5.323999999999999740e-03,5.857566901026397405e-04
2.339999999999999858e+01,6.007399999999999546e-03,5.848561874512399946e-04
2.360000000000000142e+01,6.214400000000000132e-03,6.712792712426027004e-04
2.380000000000000071e+01,6.077799999999999522e-03,7.365729699086166456e-04
2.400000000000000000e+01,5.804800000000000584e-03,7.114079982682230225e-04
2.419999999999999929e+01,6.072000000000000140e-03,7.216855270822604461e-04
2.439999999999999858e+01,5.592800000000000202e-03,7.461276298328590106e-04
2.460000000000000142e+01,6.342599999999999454e-03,8.899684039335327684e-04
2.480000000000000071e+01,6.274400000000001157e-03,8.565076532057373879e-04
2.500000000000000000e+01,5.934599999999999945e-03,8.666457523117503114e-04
2.519999999999999929e+01,5.867999999999999952e-03,6.047532554687074695e-04
2.539999999999999858e+01,5.253999999999999990e-03,6.194895479344264327e-04
2.560000000000000142e+01,4.846199999999999293e-03,8.163117909230515647e-04
2.580000000000000071e+01,4.772600000000000106e-03,9.661570058743037962e-04
2.600000000000000000e+01,4.975799999999999841e-03,8.320559716749828267e-04
2.619999999999999929e+01,5.112799999999999810e-03,9.042009400570205852e-04
2.639999999999999858e+01,5.318200000000000358e-03,8.169304988798006427e-04
2.660000000000000142e+01,5.113999999999999622e-03,5.796553286221044557e-04
2.680000000000000071e+01,4.229000000000000120e-03,4.976835339852022592e-04
2.700000000000000000e+01,3.886800000000000151e-03,4.970122131296170545e-04
2.719999999999999929e+01,3.681199999999999924e-03,6.631439059510386242e-04
2.739999999999999858e+01,3.477800000000000509e-03,5.936444558824751586e-04
2.760000000000000142e+01,4.162000000000000768e-03,4.124713323371698029e-04
2.780000000000000071e+01,4.164600000000000073e-03,3.283259965339327098e-04
2.800000000000000000e+01,4.573199999999999488e-03,5.331443894481119328e-04
2.819999999999999929e+01,4.438400000000000331e-03,3.403672428421982300e-04
2.839999999999999858e+01,4.911399999999999794e-03,4.341062773100614366e-04
2.860000000000000142e+01,4.292200000000000355e-03,6.667484833128606465e-04
2.880000000000000071e+01,4.091599999999999925e-03,4.013393327347819072e-04
2.900000000000000000e+01,4.434800000000000027e-03,3.763917374225953807e-04
2.919999999999999929e+01,4.296200000000000019e-03,4.225270878890488102e-04
2.939999999999999858e+01,4.433599999999999347e-03,3.699814319665244199e-04
2.960000000000000142e+01,4.502399999999999285e-03,4.088101759985922302e-04
2.980000000000000071e+01,4.159799999999999956e-03,5.636179911961646232e-04
3.000000000000000000e+01,4.228399999999999347e-03,4.109774446365638744e-04
3.019999999999999929e+01,3.892600000000000400e-03,3.350321775591115383e-04
3.039999999999999858e+01,4.233800000000000237e-03,5.799245985470870019e-04
3.060000000000000142e+01,3.960399999999999338e-03,4.393573261025699979e-04
3.080000000000000071e+01,3.754600000000000298e-03,2.337134142491611544e-04
3.100000000000000000e+01,3.482999999999999985e-03,3.497590599255435821e-04
3.119999999999999929e+01,3.756999999999999923e-03,3.089953074077339307e-04
3.139999999999999858e+01,3.962600000000000150e-03,4.969410025345061179e-04
3.160000000000000142e+01,3.550999999999999903e-03,4.133070287328779666e-04
3.180000000000000071e+01,4.238200000000000127e-03,4.234088331624648641e-04
3.200000000000000000e+01,4.376399999999999908e-03,4.512825722316340460e-04
3.220000000000000284e+01,3.899799999999999708e-03,5.287565980675796359e-04
3.239999999999999858e+01,3.893999999999999458e-03,3.022715666416541237e-04
3.260000000000000142e+01,3.827399999999999466e-03,5.419679510819805021e-04
3.279999999999999716e+01,4.034199999999999939e-03,7.936442149981313109e-04
3.300000000000000000e+01,3.963200000000000056e-03,7.446469230447406431e-04
3.320000000000000284e+01,3.964999999999999775e-03,7.993104528279357550e-04
3.339999999999999858e+01,4.032599999999999900e-03,7.369183536864852991e-04
3.360000000000000142e+01,3.348800000000000301e-03,7.722666896869241843e-04
3.379999999999999716e+01,2.871799999999999874e-03,7.232606307549165970e-04
3.400000000000000000e+01,3.141000000000000129e-03,9.144578175071826388e-04
3.420000000000000284e+01,2.938199999999999753e-03,6.898045665259109520e-04
3.439999999999999858e+01,3.278799999999999683e-03,5.903726280917840187e-04
3.460000000000000142e+01,3.282399999999999988e-03,6.146769558068692881e-04
3.479999999999999716e+01,3.072000000000000078e-03,5.163172474361087897e-04
3.500000000000000000e+01,2.656799999999999960e-03,6.517342556594673967e-04
3.520000000000000284e+01,2.932200000000000258e-03,6.404057619978134044e-04
3.539999999999999858e+01,2.931999999999999711e-03,5.716815547138108999e-04
3.560000000000000142e+01,3.682799999999999963e-03,7.680519123080158713e-04
3.579999999999999716e+01,3.549000000000000071e-03,6.342570456841611481e-04
3.600000000000000000e+01,3.412199999999999782e-03,6.000514477942704055e-04
3.620000000000000284e+01,2.455000000000000151e-03,4.466930713588469597e-04
3.639999999999999858e+01,2.729800000000000108e-03,5.049272620883130331e-04
3.660000000000000142e+01,3.416199999999999879e-03,4.502903951895931268e-04
3.679999999999999716e+01,3.143200000000000074e-03,5.034383179695402786e-04
3.700000000000000000e+01,2.935199999999999788e-03,3.972625580142180634e-04
3.720000000000000284e+01,2.789999999999999945e-03,6.829199806712350123e-04
3.739999999999999858e+01,2.520399999999999897e-03,4.284304611019155366e-04
3.760000000000000142e+01,2.592399999999999913e-03,3.098639378824196333e-04
3.779999999999999716e+01,2.932600000000000484e-03,3.739614418626604673e-04
3.800000000000000000e+01,2.456199999999999529e-03,3.269769716662015817e-04
3.820000000000000284e+01,2.730599999999999694e-03,4.711951400428488900e-04
3.839999999999999858e+01,2.872999999999999686e-03,5.313666342554826828e-04
3.860000000000000142e+01,2.464000000000000044e-03,4.290110721181913857e-04
3.879999999999999716e+01,3.278399999999999891e-03,2.996862692884010569e-04
3.900000000000000000e+01,3.141399999999999922e-03,4.777405781383866007e-04
3.920000000000000284e+01,3.073600000000000117e-03,4.062095025968742615e-04
3.939999999999999858e+01,2.592800000000000139e-03,2.923828654350318999e-04
3.960000000000000142e+01,2.183199999999999724e-03,3.648977116946610353e-04
3.979999999999999716e+01,2.317399999999999842e-03,5.268701547819917234e-04
4.000000000000000000e+01,2.180199999999999760e-03,5.725963150422817361e-04
4.020000000000000284e+01,1.701999999999999954e-03,4.379505679868448873e-04
4.039999999999999858e+01,2.109199999999999877e-03,7.011199184162434945e-04
4.060000000000000142e+01,2.109000000000000197e-03,7.010001426533378358e-04
4.079999999999999716e+01,2.178600000000000154e-03,5.250242470591238303e-04
4.100000000000000000e+01,2.314799999999999670e-03,5.860805746652928902e-04
4.120000000000000284e+01,2.585599999999999964e-03,6.218255060706338617e-04
4.139999999999999858e+01,2.380600000000000077e-03,6.079742264274037942e-04
4.160000000000000142e+01,2.316599999999999823e-03,3.197753273784579545e-04
4.179999999999999716e+01,2.108800000000000084e-03,5.211512640299359065e-04
4.200000000000000000e+01,1.836999999999999657e-03,4.444892574629896818e-04
4.220000000000000284e+01,1.837000000000000091e-03,4.436204458768779925e-04
4.239999999999999858e+01,2.316599999999999823e-03,4.451185909395382863e-04
4.260000000000000142e+01,2.112600000000000068e-03,4.461086863086168356e-04
4.279999999999999716e+01,2.322600000000000185e-03,2.922978959896905464e-04
4.300000000000000000e+01,2.461399999999999873e-03,3.662929974760641984e-04
4.320000000000000284e+01,2.735000000000000018e-03,5.832546613615701737e-04
4.339999999999999858e+01,2.526399999999999826e-03,5.135656335854259930e-04
4.360000000000000142e+01,2.664600000000000041e-03,3.845184780995576450e-04
4.379999999999999716e+01,2.528399999999999658e-03,3.214897510030451772e-04
4.400000000000000000e+01,2.320800000000000033e-03,1.217207459720815306e-04
4.420000000000000284e+01,2.248200000000000112e-03,3.748290810489495872e-04
4.439999999999999858e+01,2.251399999999999756e-03,3.814473227065566627e-04
4.460000000000000142e+01,2.387600000000000139e-03,4.426450722644498237e-04
4.479999999999999716e+01,2.660599999999999944e-03,4.205573207067022485e-04
4.500000000000000000e+01,2.318200000000000295e-03,4.564294469028044258e-04
4.520000000000000284e+01,2.314800000000000104e-03,5.314440139845400370e-04
4.539999999999999858e+01,2.179200000000000061e-03,4.150936520834786359e-04
4.560000000000000142e+01,2.179799999999999967e-03,3.896370618922178827e-04
4.579999999999999716e+01,1.701999999999999954e-03,3.963285253422972696e-04
4.600000000000000000e+01,1.705600000000000258e-03,1.810294451187430297e-04
4.620000000000000284e+01,1.845000000000000069e-03,1.773502184943677820e-04
4.639999999999999858e+01,1.842000000000000321e-03,2.271191317348672555e-04
4.660000000000000142e+01,1.842600000000000227e-03,2.533017173254062610e-04
4.679999999999999716e+01,1.908799999999999776e-03,4.626784412526694984e-04
4.700000000000000000e+01,1.840599999999999962e-03,3.631204483363612880e-04
4.720000000000000284e+01,1.774200000000000083e-03,4.634587791810614488e-04
4.739999999999999858e+01,2.048600000000000247e-03,5.393238915531186305e-04
4.760000000000000142e+01,2.047799999999999794e-03,4.687911475273397687e-04
4.779999999999999716e+01,2.113999999999999994e-03,4.951071601178879712e-04
4.800000000000000000e+01,2.046800000000000095e-03,7.087504074072903740e-04
4.820000000000000284e+01,1.981799999999999708e-03,5.684661291581056533e-04
4.839999999999999858e+01,2.253999999999999927e-03,4.677125185410370509e-04
4.860000000000000142e+01,1.501599999999999853e-03,3.838073214517929792e-04
4.879999999999999716e+01,1.709599999999999922e-03,4.746866966747645780e-04
4.900000000000000000e+01,2.123400000000000114e-03,8.030611184710661696e-04
4.920000000000000284e+01,2.327399999999999435e-03,6.756558739476776218e-04
4.939999999999999858e+01,2.256999999999999892e-03,5.406228814987393879e-04
4.960000000000000142e+01,2.048399999999999700e-03,3.039420339472642956e-04
4.979999999999999716e+01,1.712800000000000000e-03,5.118129931918492369e-04
5.000000000000000000e+01,1.850999999999999781e-03,6.230758380807268400e-04
5.020000000000000284e+01,1.851800000000000017e-03,6.868142689257409434e-04
5.039999999999999858e+01,1.782000000000000164e-03,4.702397260972322073e-04
5.060000000000000142e+01,1.712599999999999886e-03,3.646604722203929377e-04
5.079999999999999716e+01,1.574600000000000218e-03,2.599562655524963227e-04
5.100000000000000000e+01,1.780000000000000332e-03,3.004609791636844393e-04
5.120000000000000284e+01,1.916600000000000291e-03,3.227898077697001706e-04
5.139999999999999858e+01,2.329399999999999700e-03,4.958976305650189542e-04
5.160000000000000142e+01,1.641400000000000107e-03,1.341046606199799594e-04
5.179999999999999716e+01,1.368199999999999972e-03,1.572213089883174944e-04
5.200000000000000000e+01,1.435999999999999993e-03,2.532867939707872016e-04
5.220000000000000284e+01,1.162799999999999858e-03,3.363286190617741696e-04
5.239999999999999858e+01,1.642199999999999910e-03,4.263061575909969951e-04
5.260000000000000142e+01,1.912599999999999977e-03,4.145992764103670672e-04
5.279999999999999716e+01,1.638200000000000029e-03,2.929594511190925735e-04
5.300000000000000000e+01,1.501799999999999967e-03,2.316537070715683278e-04
5.320000000000000284e+01,1.777200000000000047e-03,2.270307027694712246e-04
