timestep,H(t)_mean,H(t)_err
4.000000000000000222e-01,6.748579999999999579e-01,1.814467470085925861e-03
8.000000000000000444e-01,5.007865999999999707e-01,1.140948316094994933e-03
1.199999999999999956e+00,4.062502000000000058e-01,8.515360473873134339e-04
1.600000000000000089e+00,3.450290000000000301e-01,1.400414617175927334e-03
2.000000000000000000e+00,2.966541999999999790e-01,1.251830795275460286e-03
2.399999999999999911e+00,2.577793999999999919e-01,5.959897314551656448e-04
2.799999999999999822e+00,2.271415999999999991e-01,1.314700026622041187e-03
3.200000000000000178e+00,2.016719999999999902e-01,1.191692284106933130e-03
3.600000000000000089e+00,1.807443999999999995e-01,1.440885859462849887e-03
4.000000000000000000e+00,1.649271999999999960e-01,1.545367283204868592e-03
4.400000000000000355e+00,1.504435999999999829e-01,9.866527555325644346e-04
4.799999999999999822e+00,1.385028000000000092e-01,1.343501075548509055e-03
5.200000000000000178e+00,1.269213999999999898e-01,1.515401649728547861e-03
5.599999999999999645e+00,1.175734000000000085e-01,1.583081728780923484e-03
6.000000000000000000e+00,1.075560000000000127e-01,1.423906141569731372e-03
6.400000000000000355e+00,1.001206000000000040e-01,1.264877211432002086e-03
6.799999999999999822e+00,9.395800000000001373e-02,1.054033396055363862e-03
7.200000000000000178e+00,8.732979999999998522e-02,6.749226177866614546e-04
7.599999999999999645e+00,8.146899999999999975e-02,1.162120905930186980e-03
8.000000000000000000e+00,7.535300000000000331e-02,9.170541423492953748e-04
8.400000000000000355e+00,7.066820000000000046e-02,1.116293482915673568e-03
8.800000000000000711e+00,6.679779999999999052e-02,7.855691821857577585e-04
9.199999999999999289e+00,6.253559999999999675e-02,4.074587831916259470e-04
9.599999999999999645e+00,5.814339999999999786e-02,9.211404127493266671e-04
1.000000000000000000e+01,5.572219999999999951e-02,4.792211806671320233e-04
1.040000000000000036e+01,5.356179999999999275e-02,5.797868918835609236e-04
1.080000000000000071e+01,5.079720000000000069e-02,1.002022674394146846e-03
1.119999999999999929e+01,4.740899999999999281e-02,1.111863705676195474e-03
1.159999999999999964e+01,4.533900000000000430e-02,8.403971680104585160e-04
1.200000000000000000e+01,4.371279999999999610e-02,6.395160983118410025e-04
1.240000000000000036e+01,4.187979999999999481e-02,1.143940400545413651e-03
1.280000000000000071e+01,4.006019999999999720e-02,1.021080966427246120e-03
1.319999999999999929e+01,3.868560000000000054e-02,6.001655271672980390e-04
1.359999999999999964e+01,3.698059999999999542e-02,6.729591815258935926e-04
1.400000000000000000e+01,3.577339999999999687e-02,6.435172569558642724e-04
1.440000000000000036e+01,3.429880000000000428e-02,5.826701811488208546e-04
1.480000000000000071e+01,3.310240000000000404e-02,8.043761309238357761e-04
1.519999999999999929e+01,3.103260000000000046e-02,7.443633924367847304e-04
1.559999999999999964e+01,2.995640000000000108e-02,4.872861171837345276e-04
1.600000000000000000e+01,2.828339999999999674e-02,3.559561208913254791e-04
1.639999999999999858e+01,2.787660000000000138e-02,6.551193479054028511e-04
1.680000000000000071e+01,2.721379999999999980e-02,2.424721427298401322e-04
1.719999999999999929e+01,2.598600000000000215e-02,2.042567012364588101e-04
1.760000000000000142e+01,2.429339999999999972e-02,3.218261331837426174e-04
1.800000000000000000e+01,2.314580000000000110e-02,4.765444785117125366e-04
1.839999999999999858e+01,2.226780000000000079e-02,4.333364051173174453e-04
1.880000000000000071e+01,2.147160000000000041e-02,5.162203599239380530e-04
1.919999999999999929e+01,2.150539999999999743e-02,6.234101057891181571e-04
1.960000000000000142e+01,2.052860000000000101e-02,9.956831122400332679e-04
2.000000000000000000e+01,2.087980000000000044e-02,9.581054430489369502e-04
2.039999999999999858e+01,2.025460000000000108e-02,9.774274704549691488e-04
2.080000000000000071e+01,1.967680000000000123e-02,9.950886593665909333e-04
2.119999999999999929e+01,1.897459999999999772e-02,8.103082499888545221e-04
2.160000000000000142e+01,1.867900000000000116e-02,9.175709781809795063e-04
2.200000000000000000e+01,1.764059999999999934e-02,3.924457414726273299e-04
2.239999999999999858e+01,1.693560000000000204e-02,5.077671316656879067e-04
2.280000000000000071e+01,1.625140000000000265e-02,5.061569519427744010e-04
2.319999999999999929e+01,1.597780000000000034e-02,2.843331496677795295e-04
2.360000000000000142e+01,1.484040000000000012e-02,1.492543466703732664e-04
2.400000000000000000e+01,1.471680000000000210e-02,2.111462526307295961e-04
2.439999999999999858e+01,1.426139999999999873e-02,2.031845466564817710e-04
2.480000000000000071e+01,1.424979999999999823e-02,3.297634606805308391e-04
2.519999999999999929e+01,1.451060000000000197e-02,3.813851858685649867e-04
2.560000000000000142e+01,1.402059999999999938e-02,5.452525653309666948e-04
2.600000000000000000e+01,1.372599999999999862e-02,3.533970854435560167e-04
2.639999999999999858e+01,1.296440000000000092e-02,1.866835825668663985e-04
2.680000000000000071e+01,1.262220000000000009e-02,1.946205025170781643e-04
2.719999999999999929e+01,1.268120000000000011e-02,2.074647921937599227e-04
2.760000000000000142e+01,1.259019999999999931e-02,2.336710080433600516e-04
2.800000000000000000e+01,1.181619999999999893e-02,2.136018258348930951e-04
2.839999999999999858e+01,1.162279999999999910e-02,7.533684357603522279e-05
2.880000000000000071e+01,1.173680000000000036e-02,3.925024076359278106e-04
2.919999999999999929e+01,1.143060000000000083e-02,4.203144775046418124e-04
2.960000000000000142e+01,1.108999999999999916e-02,4.414989241209993625e-04
3.000000000000000000e+01,1.094280000000000079e-02,4.705842538802162945e-04
3.039999999999999858e+01,1.064520000000000050e-02,3.014218638387069593e-04
3.080000000000000071e+01,1.011079999999999965e-02,2.430436997743407111e-04
3.119999999999999929e+01,9.974800000000000680e-03,3.160427819140947722e-04
3.160000000000000142e+01,9.849600000000000022e-03,1.645535171304460308e-04
3.200000000000000000e+01,9.631799999999999390e-03,1.488520742213555602e-04
3.239999999999999858e+01,9.600199999999999706e-03,3.683289833830620617e-04
3.279999999999999716e+01,9.348399999999999765e-03,1.376021802152858789e-04
3.320000000000000284e+01,9.131400000000001321e-03,2.762539773469335942e-04
3.360000000000000142e+01,9.109599999999998948e-03,2.951415931379378120e-04
3.400000000000000000e+01,8.678800000000000403e-03,3.038243571539319277e-04
3.439999999999999858e+01,7.938799999999999329e-03,2.001258104293396844e-04
3.479999999999999716e+01,7.712000000000000972e-03,3.227999380421252827e-04
3.520000000000000284e+01,7.768399999999999958e-03,2.593489155558587316e-04
3.560000000000000142e+01,7.698999999999999247e-03,2.298849712356160169e-04
3.600000000000000000e+01,7.641799999999999808e-03,2.794176801850591671e-04
3.639999999999999858e+01,7.824199999999999905e-03,2.850107717262628467e-04
3.679999999999999716e+01,7.870199999999999071e-03,2.102920350369933788e-04
3.720000000000000284e+01,7.414799999999999169e-03,1.620701699881875327e-04
3.760000000000000142e+01,7.072799999999999747e-03,3.007684158950203854e-04
3.800000000000000000e+01,7.039199999999999798e-03,3.488452952241150365e-04
3.839999999999999858e+01,6.847000000000000655e-03,3.343655185571623128e-04
3.879999999999999716e+01,6.822999999999998337e-03,2.003040189312236933e-04
3.920000000000000284e+01,6.868399999999999332e-03,9.348775320864234249e-05
3.960000000000000142e+01,6.743599999999999768e-03,2.923057645685422402e-04
4.000000000000000000e+01,6.583400000000000536e-03,3.023237668460750961e-04
4.039999999999999858e+01,6.448399999999999965e-03,2.131969981026937255e-04
4.079999999999999716e+01,6.541400000000000166e-03,2.373273267030157822e-04
4.120000000000000284e+01,6.413399999999999657e-03,1.349817024637043933e-04
4.160000000000000142e+01,6.565200000000000202e-03,1.738425724614082806e-04
4.200000000000000000e+01,6.192600000000001229e-03,1.658838750451652579e-04
4.239999999999999858e+01,6.100200000000000067e-03,3.355016244372000119e-04
4.279999999999999716e+01,6.636400000000000632e-03,2.594491472331332126e-04
4.320000000000000284e+01,6.519800000000000942e-03,2.390822870896127154e-04
4.360000000000000142e+01,6.263599999999999376e-03,2.921449297865701513e-04
4.400000000000000000e+01,6.438799999999999732e-03,2.518399094663115721e-04
4.439999999999999858e+01,6.367999999999998662e-03,1.927529506907741514e-04
4.479999999999999716e+01,5.971999999999999878e-03,2.033019921200970382e-04
4.520000000000000284e+01,6.134800000000001016e-03,1.458078873038081954e-04
4.560000000000000142e+01,6.029799999999999223e-03,8.978830658833036773e-05
4.600000000000000000e+01,6.169400000000000231e-03,1.310105339276197896e-04
4.639999999999999858e+01,6.309800000000001692e-03,2.182666717572795769e-04
4.679999999999999716e+01,6.239599999999999660e-03,1.160166367380126935e-04
4.720000000000000284e+01,6.075800000000000992e-03,2.118073180983130711e-04
4.760000000000000142e+01,5.772999999999999486e-03,2.264687616427483964e-04
4.800000000000000000e+01,5.795799999999999390e-03,1.462906012018542882e-04
4.839999999999999858e+01,5.691599999999999784e-03,1.664189292117935744e-04
4.879999999999999716e+01,5.412400000000000370e-03,3.343585799706656086e-04
4.920000000000000284e+01,5.260200000000000466e-03,1.593902129994184539e-04
4.960000000000000142e+01,4.967599999999999967e-03,2.189021699298570364e-04
5.000000000000000000e+01,4.978399999999999145e-03,3.205569528180600728e-04
5.039999999999999858e+01,5.271200000000000191e-03,2.605162950757591530e-04
5.079999999999999716e+01,5.048599999999999442e-03,2.900583734354172396e-04
5.120000000000000284e+01,5.106799999999999881e-03,2.307919842628854894e-04
5.160000000000000142e+01,5.131199999999999824e-03,1.364864095798551467e-04
5.200000000000000000e+01,4.827599999999999600e-03,6.917340529423144063e-05
5.239999999999999858e+01,4.734000000000000360e-03,1.802717393270503957e-04
5.279999999999999716e+01,4.629600000000000208e-03,1.664585834374424805e-04
5.320000000000000284e+01,4.372400000000000245e-03,2.468571651785703234e-04
5.360000000000000142e+01,4.489399999999999294e-03,1.118269198359679833e-04
5.400000000000000000e+01,4.268599999999999998e-03,5.882737458020705968e-05
5.439999999999999858e+01,4.373799999999999737e-03,1.607710794888185318e-04
5.479999999999999716e+01,4.419799999999999771e-03,1.792493793573633981e-04
5.520000000000000284e+01,4.292400000000000035e-03,1.883495686217517438e-04
5.560000000000000142e+01,4.210600000000000107e-03,2.496951341135825175e-04
5.600000000000000000e+01,4.280599999999999856e-03,1.526108121988740648e-04
5.639999999999999858e+01,4.118199999999999812e-03,2.242773729113127176e-04
5.679999999999999716e+01,4.117000000000000000e-03,6.602499526694408528e-05
5.720000000000000284e+01,3.895399999999999384e-03,1.556273112278175579e-04
5.760000000000000142e+01,3.954799999999999635e-03,1.806539232898085330e-04
5.800000000000000000e+01,3.850800000000000143e-03,2.791697333164896272e-04
5.839999999999999858e+01,3.768599999999999554e-03,2.974932940420674070e-04
5.879999999999999716e+01,3.489200000000000027e-03,2.557958951977142557e-04
5.920000000000000284e+01,3.360399999999999499e-03,2.644274191531581671e-04
5.960000000000000142e+01,3.780599999999999846e-03,2.789241115429070194e-04
6.000000000000000000e+01,3.861600000000000622e-03,2.046833163694589694e-04
6.039999999999999858e+01,4.059000000000000108e-03,1.094170919006714934e-04
6.079999999999999716e+01,4.071199999999999646e-03,1.527260292157168423e-04
6.120000000000000284e+01,3.872600000000000348e-03,2.330014163047083853e-04
6.160000000000000142e+01,3.592999999999999840e-03,2.347098208426736906e-04
6.200000000000000000e+01,3.616399999999999650e-03,2.630613236490684636e-04
6.239999999999999858e+01,3.557600000000000172e-03,1.000942555794287220e-04
6.279999999999999716e+01,3.242799999999999676e-03,1.903954831397005514e-04
6.320000000000000284e+01,3.149400000000000116e-03,2.161914891941863707e-04
6.360000000000000142e+01,3.230799999999999818e-03,2.996473594076878009e-04
6.400000000000000000e+01,3.393600000000000089e-03,2.354475737823602858e-04
6.440000000000000568e+01,3.265400000000000334e-03,1.403903842861041343e-04
6.479999999999999716e+01,3.533800000000000135e-03,2.249725316566446396e-04
6.520000000000000284e+01,3.231199999999999177e-03,1.303420116462838247e-04
6.559999999999999432e+01,3.241799999999999543e-03,8.848242763396581983e-05
6.600000000000000000e+01,3.371999999999999997e-03,2.459331209902398995e-04
6.640000000000000568e+01,3.477000000000000056e-03,2.171004375859247621e-04
6.679999999999999716e+01,3.499799999999999960e-03,1.661058096515591180e-04
6.720000000000000284e+01,3.522999999999999656e-03,1.998166659715849391e-04
6.759999999999999432e+01,3.569600000000000030e-03,2.888240987175412196e-04
6.800000000000000000e+01,3.592600000000000047e-03,2.070020772842629951e-04
6.840000000000000568e+01,3.603600000000000639e-03,2.244470093362795939e-04
6.879999999999999716e+01,3.674999999999999881e-03,2.826998408206131928e-04
6.920000000000000284e+01,3.756799999999999810e-03,2.551304372277051098e-04
6.959999999999999432e+01,3.523199999999999769e-03,2.257127377885439459e-04
7.000000000000000000e+01,3.534400000000000042e-03,1.487452856395791415e-04
7.040000000000000568e+01,3.523599999999999562e-03,2.706158901469017555e-04
7.079999999999999716e+01,3.675599999999999788e-03,2.490946807942714318e-04
7.120000000000000284e+01,3.371400000000000091e-03,1.194590306339374263e-04
7.159999999999999432e+01,3.300800000000000435e-03,1.118903034225933669e-04
7.200000000000000000e+01,3.253600000000000155e-03,1.161738352642281176e-04
7.240000000000000568e+01,3.264600000000000314e-03,1.273148066801344013e-04
7.279999999999999716e+01,3.079400000000000366e-03,1.430481037972890722e-04
7.320000000000000284e+01,3.103599999999999762e-03,2.174085094930739131e-04
7.359999999999999432e+01,2.939399999999999999e-03,1.671898920389626496e-04
7.400000000000000000e+01,2.880999999999999880e-03,2.157178713041643517e-04
7.440000000000000568e+01,2.881199999999999560e-03,9.978747416384485102e-05
7.479999999999999716e+01,2.949800000000000252e-03,2.447342231891567500e-04
7.520000000000000284e+01,3.008599999999999729e-03,2.922936194992972942e-04
7.559999999999999432e+01,2.810599999999999904e-03,2.353148104136243413e-04
7.600000000000000000e+01,3.033000000000000106e-03,1.567523524544368310e-04
7.640000000000000568e+01,2.974599999999999987e-03,1.637680066435444196e-04
7.679999999999999716e+01,3.090199999999999978e-03,1.256826957062904897e-04
7.720000000000000284e+01,2.962200000000000336e-03,1.378975706820102180e-04
7.759999999999999432e+01,3.127000000000000005e-03,2.722280294165169753e-04
7.800000000000000000e+01,3.056600000000000462e-03,2.688740597380119015e-04
7.840000000000000568e+01,2.869000000000000022e-03,1.018125728974570202e-04
7.879999999999999716e+01,2.903800000000000218e-03,2.400290399097576837e-04
7.920000000000000284e+01,2.879999999999999748e-03,2.478808181364584471e-04
7.959999999999999432e+01,2.717200000000000344e-03,2.288987549114236859e-04
8.000000000000000000e+01,2.564799999999999892e-03,1.656717839585244469e-04
8.040000000000000568e+01,2.584400000000000152e-03,2.125174345789069706e-04
8.079999999999999716e+01,2.693200000000000194e-03,1.255875790036578468e-04
8.120000000000000284e+01,2.608999999999999774e-03,1.875851806513510430e-04
8.159999999999999432e+01,2.441599999999999934e-03,1.342522253074413658e-04
8.200000000000000000e+01,2.620800000000000386e-03,1.463917347393629397e-04
8.240000000000000568e+01,2.765800000000000116e-03,2.095190683446258547e-04
8.279999999999999716e+01,2.573999999999999899e-03,1.647844046018918528e-04
8.320000000000000284e+01,2.693399999999999874e-03,1.016855938665846921e-04
8.359999999999999432e+01,2.682000000000000356e-03,1.296310148074140088e-04
8.400000000000000000e+01,2.526400000000000260e-03,1.448632458562212715e-04
8.440000000000000568e+01,2.404799999999999906e-03,9.770895557726524505e-05
8.479999999999999716e+01,2.249399999999999490e-03,6.248567835912487677e-05
8.520000000000000284e+01,2.237199999999999953e-03,1.123322749702862809e-04
8.559999999999999432e+01,2.309400000000000081e-03,9.660672854413401389e-05
8.600000000000000000e+01,2.596799999999999803e-03,2.048744493586254680e-04
8.640000000000000568e+01,2.573999999999999899e-03,2.000437452158901721e-04
8.679999999999999716e+01,2.345799999999999882e-03,1.751577574645211228e-04
8.720000000000000284e+01,2.214199999999999936e-03,1.335104490292800543e-04
8.759999999999999432e+01,2.442199999999999840e-03,1.109380007030953788e-04
8.800000000000000000e+01,2.453199999999999999e-03,1.063350365589818390e-04
8.840000000000000568e+01,2.573200000000000313e-03,1.606273326678868548e-04
8.879999999999999716e+01,2.549399999999999843e-03,2.033230434554824219e-04
8.920000000000000284e+01,2.441800000000000047e-03,2.277266782790281663e-04
8.959999999999999432e+01,2.561200000000000455e-03,1.235788816910073963e-04
9.000000000000000000e+01,2.380600000000000077e-03,1.254585987487506164e-04
9.040000000000000568e+01,2.405199999999999699e-03,1.339378213948547093e-04
9.079999999999999716e+01,2.273800000000000300e-03,1.321402285452844146e-04
9.120000000000000284e+01,2.488999999999999893e-03,1.304817994970946398e-04
9.159999999999999432e+01,2.584999999999999624e-03,1.428527213601476478e-04
9.200000000000000000e+01,2.501800000000000204e-03,2.377743468080608432e-04
9.240000000000000568e+01,2.490200000000000139e-03,2.616085625509990357e-04
9.279999999999999716e+01,2.477000000000000035e-03,2.528541081335242721e-04
9.320000000000000284e+01,2.501399999999999978e-03,2.050625758152861819e-04
9.359999999999999432e+01,2.201999999999999964e-03,2.189034033540821237e-04
9.400000000000000000e+01,2.490000000000000026e-03,1.382830430674708718e-04
9.440000000000000568e+01,2.537399999999999985e-03,2.312471837666353082e-04
9.479999999999999716e+01,2.345999999999999995e-03,2.588700446169853652e-04
9.520000000000000284e+01,2.285199999999999818e-03,2.104303685307802498e-04
9.559999999999999432e+01,2.381399999999999663e-03,5.888344419274406806e-05
9.600000000000000000e+01,2.452999999999999452e-03,1.597861070306176091e-04
9.640000000000000568e+01,2.608200000000000188e-03,9.984007211535853162e-05
9.679999999999999716e+01,2.261800000000000008e-03,1.355586220053892575e-04
9.720000000000000284e+01,2.309799999999999874e-03,3.248907508686574812e-05
9.759999999999999432e+01,2.405000000000000020e-03,1.154270332287891639e-04
9.800000000000000000e+01,2.404799999999999906e-03,2.250309756455764326e-04
9.840000000000000568e+01,2.262600000000000028e-03,2.455073522320665451e-04
9.879999999999999716e+01,2.166399999999999750e-03,1.419001761802993601e-04
9.920000000000000284e+01,2.129599999999999722e-03,7.555170415020428609e-05
9.959999999999999432e+01,2.082200000000000197e-03,1.119693708118429942e-04
1.000000000000000000e+02,1.999200000000000022e-03,1.995079948272750008e-04
1.004000000000000057e+02,2.094400000000000168e-03,1.549392138872532473e-04
1.007999999999999972e+02,2.131200000000000195e-03,1.467305012599630072e-04
1.012000000000000028e+02,1.939200000000000298e-03,9.810575926009642807e-05
1.015999999999999943e+02,1.866999999999999953e-03,9.663074045043843234e-05
1.020000000000000000e+02,2.058599999999999840e-03,1.182280000676658779e-04
1.024000000000000057e+02,2.106599999999999705e-03,1.404879354250748139e-04
1.027999999999999972e+02,2.106599999999999705e-03,1.128222495787067800e-04
1.032000000000000028e+02,2.082599999999999989e-03,1.398554968530017837e-04
1.035999999999999943e+02,2.118199999999999771e-03,1.327126218564006553e-04
1.040000000000000000e+02,2.081999999999999650e-03,1.735934906613724427e-04
1.044000000000000057e+02,1.866999999999999953e-03,1.481630858209965606e-04
1.047999999999999972e+02,1.961999999999999768e-03,1.357295104242256870e-04
1.052000000000000028e+02,1.878400000000000122e-03,1.227275845113884475e-04
1.055999999999999943e+02,1.986599999999999824e-03,1.217483470113660401e-04
1.060000000000000000e+02,1.891000000000000320e-03,1.271432263237015593e-04
1.064000000000000057e+02,1.806400000000000106e-03,1.957645524603471006e-04
