timestep,H(t)_mean,H(t)_err
4.000000000000000222e-01,7.095110000000000028e-01,3.471355326093834414e-03
8.000000000000000444e-01,5.497429999999999817e-01,6.311001917286980858e-03
1.199999999999999956e+00,4.632591999999999821e-01,9.498658010477119273e-04
1.600000000000000089e+00,4.103106000000000253e-01,4.396012347571380020e-03
2.000000000000000000e+00,3.619983999999999424e-01,2.230150053247536342e-03
2.399999999999999911e+00,3.266580000000000039e-01,3.235116025740040428e-03
2.799999999999999822e+00,2.878952000000000178e-01,4.863253462446719480e-03
3.200000000000000178e+00,2.784365999999999786e-01,2.738978762239677178e-03
3.600000000000000089e+00,2.492385999999999768e-01,3.133143127914842473e-03
4.000000000000000000e+00,2.303706000000000087e-01,4.024704741965551974e-03
4.400000000000000355e+00,2.085918000000000494e-01,2.691525504244754625e-03
4.799999999999999822e+00,2.020859999999999879e-01,5.233520106008958742e-03
5.200000000000000178e+00,1.869417999999999913e-01,4.564783734198151269e-03
5.599999999999999645e+00,1.803321999999999981e-01,2.413506192243970033e-03
6.000000000000000000e+00,1.677353999999999790e-01,2.950120075522349311e-03
6.400000000000000355e+00,1.632683999999999802e-01,2.628000449010619178e-03
6.799999999999999822e+00,1.521370000000000222e-01,2.401645998060494488e-03
7.200000000000000178e+00,1.471146000000000120e-01,2.225229619612322397e-03
7.599999999999999645e+00,1.410021999999999942e-01,3.849934511131324066e-03
8.000000000000000000e+00,1.327770000000000061e-01,5.497982757339278312e-03
8.400000000000000355e+00,1.284318000000000126e-01,3.545165290927913566e-03
8.800000000000000711e+00,1.186314000000000118e-01,4.971924945129400919e-03
9.199999999999999289e+00,1.150373999999999980e-01,4.384757160892720565e-03
9.599999999999999645e+00,1.133631999999999973e-01,3.941943168032738601e-03
1.000000000000000000e+01,1.050116000000000105e-01,4.694003809116478222e-03
1.040000000000000036e+01,9.841959999999999598e-02,5.972156692519043145e-03
1.080000000000000071e+01,9.657880000000000631e-02,4.321253561178744693e-03
1.119999999999999929e+01,9.493360000000000687e-02,4.339506441981621360e-03
1.159999999999999964e+01,8.468180000000000152e-02,3.086579116108965643e-03
1.200000000000000000e+01,8.697820000000000551e-02,6.368864690036992078e-03
1.240000000000000036e+01,8.204239999999998756e-02,5.421100355093973200e-03
1.280000000000000071e+01,8.456240000000000978e-02,5.901907230717881071e-03
1.319999999999999929e+01,7.666819999999999191e-02,4.668525017604598093e-03
1.359999999999999964e+01,7.144360000000000988e-02,4.083265244874499135e-03
1.400000000000000000e+01,6.369260000000000199e-02,4.019630550187417925e-03
1.440000000000000036e+01,6.658899999999999542e-02,4.015763264934824398e-03
1.480000000000000071e+01,6.344220000000000415e-02,4.460151246314412316e-03
1.519999999999999929e+01,5.725580000000000253e-02,3.179749414655185999e-03
1.559999999999999964e+01,5.707199999999999773e-02,1.033284859078075586e-03
1.600000000000000000e+01,5.805519999999999431e-02,7.933358935532918441e-04
1.639999999999999858e+01,5.748100000000000431e-02,1.142915744926107117e-03
1.680000000000000071e+01,5.510800000000000420e-02,1.587915835301102665e-03
1.719999999999999929e+01,5.417119999999999574e-02,1.464485998567414699e-03
1.760000000000000142e+01,5.202839999999999548e-02,1.880761643590169764e-03
1.800000000000000000e+01,5.081700000000000106e-02,2.047059769523107507e-03
1.839999999999999858e+01,4.781200000000000727e-02,2.888726709122896568e-03
1.880000000000000071e+01,4.473959999999999743e-02,2.477236980993139000e-03
1.919999999999999929e+01,4.530959999999999849e-02,2.182755497072449806e-03
1.960000000000000142e+01,4.434620000000000228e-02,4.330297049856973030e-03
2.000000000000000000e+01,4.099699999999999872e-02,4.682912501851811855e-03
2.039999999999999858e+01,4.004719999999999808e-02,4.294373847256431447e-03
2.080000000000000071e+01,4.271980000000000915e-02,4.002355199129632030e-03
2.119999999999999929e+01,4.086539999999999617e-02,3.944944126347038442e-03
2.160000000000000142e+01,3.983420000000000016e-02,4.558832168439631675e-03
2.200000000000000000e+01,3.939299999999999746e-02,2.602426790516881687e-03
2.239999999999999858e+01,3.918280000000000374e-02,2.067073931914385505e-03
2.280000000000000071e+01,3.977180000000000298e-02,1.340148103755700202e-03
2.319999999999999929e+01,3.765359999999999541e-02,1.137397186562372382e-03
2.360000000000000142e+01,3.746700000000000030e-02,7.996759968887400850e-04
2.400000000000000000e+01,3.397139999999999882e-02,8.382880531177815163e-04
2.439999999999999858e+01,3.127220000000000000e-02,2.023522705580543032e-03
2.480000000000000071e+01,3.228899999999999826e-02,3.015065886510608344e-03
2.519999999999999929e+01,3.305139999999999467e-02,2.321658256505466488e-03
2.560000000000000142e+01,3.291539999999999744e-02,2.318123909544095047e-03
2.600000000000000000e+01,3.094259999999999719e-02,1.991696603401230722e-03
2.639999999999999858e+01,2.937259999999999871e-02,2.168346941796907203e-03
2.680000000000000071e+01,2.982620000000000410e-02,2.766233565699035678e-03
2.719999999999999929e+01,2.981719999999999857e-02,2.462860986738796883e-03
2.760000000000000142e+01,2.876240000000000047e-02,2.416820278796087424e-03
2.800000000000000000e+01,2.993840000000000390e-02,3.557549965917555269e-03
2.839999999999999858e+01,2.931779999999999803e-02,2.927564899366024050e-03
2.880000000000000071e+01,3.172840000000000382e-02,3.080920959713183069e-03
2.919999999999999929e+01,3.074980000000000421e-02,2.565479378205952517e-03
2.960000000000000142e+01,3.343580000000000163e-02,2.845512597055229603e-03
3.000000000000000000e+01,2.791400000000000131e-02,2.987386918361932368e-03
3.039999999999999858e+01,2.576660000000000061e-02,1.788042186303221001e-03
3.080000000000000071e+01,2.627739999999999937e-02,2.163585487102369712e-03
3.119999999999999929e+01,2.485479999999999981e-02,2.550338436364867935e-03
3.160000000000000142e+01,2.497980000000000339e-02,2.103871726127807401e-03
3.200000000000000000e+01,2.401220000000000437e-02,1.913736303674045845e-03
3.239999999999999858e+01,2.502199999999999910e-02,1.142426365241979011e-03
3.279999999999999716e+01,2.133059999999999817e-02,1.659319035026115934e-03
3.320000000000000284e+01,2.211819999999999758e-02,2.278490144810813283e-03
3.360000000000000142e+01,2.168060000000000126e-02,2.153287384442680637e-03
3.400000000000000000e+01,2.305019999999999986e-02,1.431585463742908850e-03
3.439999999999999858e+01,2.190740000000000048e-02,1.986390812503923721e-03
3.479999999999999716e+01,1.959999999999999937e-02,1.579941676138711063e-03
3.520000000000000284e+01,1.919159999999999963e-02,1.981484458682429648e-03
3.560000000000000142e+01,2.210000000000000159e-02,2.455190949804108083e-03
3.600000000000000000e+01,1.876599999999999796e-02,2.167532767918399668e-03
3.639999999999999858e+01,1.928400000000000253e-02,1.147916852389579620e-03
3.679999999999999716e+01,2.115360000000000157e-02,1.092979716188731149e-03
3.720000000000000284e+01,2.001259999999999845e-02,1.375543514397127229e-03
3.760000000000000142e+01,1.829099999999999476e-02,1.042744839354288076e-03
3.800000000000000000e+01,1.592380000000000184e-02,1.056538849262060728e-03
3.839999999999999858e+01,1.764120000000000271e-02,1.039178204159421333e-03
3.879999999999999716e+01,1.688740000000000033e-02,9.696038675665438668e-04
3.920000000000000284e+01,1.685760000000000036e-02,2.652749980680425574e-03
3.960000000000000142e+01,1.609499999999999820e-02,1.894526246849063435e-03
4.000000000000000000e+01,1.410959999999999645e-02,2.635851448773241911e-03
4.039999999999999858e+01,1.428020000000000157e-02,2.835364639689223407e-03
4.079999999999999716e+01,1.309600000000000000e-02,3.887307911652999621e-03
4.120000000000000284e+01,1.609619999999999801e-02,3.099316318157925316e-03
4.160000000000000142e+01,1.469219999999999901e-02,1.627235059848453763e-03
4.200000000000000000e+01,1.299240000000000117e-02,1.500280327138898105e-03
4.239999999999999858e+01,1.337599999999999900e-02,2.091865746170150451e-03
4.279999999999999716e+01,1.338960000000000150e-02,1.913827515739075251e-03
4.320000000000000284e+01,1.223439999999999944e-02,2.143855606145152366e-03
4.360000000000000142e+01,1.005919999999999905e-02,1.907029900132664341e-03
4.400000000000000000e+01,1.022480000000000090e-02,1.952454798452451243e-03
4.439999999999999858e+01,1.078120000000000120e-02,2.018919993461850641e-03
4.479999999999999716e+01,1.196820000000000002e-02,1.644786320468406881e-03
4.520000000000000284e+01,1.153700000000000038e-02,1.351511968130508388e-03
4.560000000000000142e+01,1.055880000000000013e-02,1.390189533840620155e-03
4.600000000000000000e+01,1.231599999999999882e-02,9.670081178563085834e-04
4.639999999999999858e+01,1.171320000000000000e-02,1.928323142007065194e-03
4.679999999999999716e+01,1.113980000000000178e-02,1.411392766029357163e-03
4.720000000000000284e+01,1.172699999999999958e-02,1.671892341031562708e-03
4.760000000000000142e+01,1.313339999999999994e-02,2.261282613916270560e-03
4.800000000000000000e+01,1.273340000000000062e-02,1.688977282262848871e-03
4.839999999999999858e+01,1.214120000000000130e-02,1.522505185541250935e-03
4.879999999999999716e+01,9.927000000000000060e-03,1.426254921113332807e-03
4.920000000000000284e+01,9.759399999999999673e-03,1.417061558295898503e-03
4.960000000000000142e+01,1.110099999999999976e-02,1.960419011334057094e-03
5.000000000000000000e+01,1.214200000000000175e-02,2.110615857990269257e-03
5.039999999999999858e+01,1.212159999999999974e-02,2.001124473889617610e-03
5.079999999999999716e+01,1.048299999999999926e-02,1.851230266606507420e-03
5.120000000000000284e+01,9.290600000000001288e-03,1.295739348788945387e-03
5.160000000000000142e+01,9.331400000000000111e-03,1.117948952322958024e-03
5.200000000000000000e+01,7.746000000000000281e-03,5.513553300730844337e-04
5.239999999999999858e+01,9.575000000000000178e-03,6.922341366907585518e-04
5.279999999999999716e+01,9.766999999999999640e-03,5.656317706777085324e-04
5.320000000000000284e+01,8.382400000000001655e-03,1.654692587763660801e-03
5.360000000000000142e+01,7.927199999999998831e-03,1.452023773910055601e-03
5.400000000000000000e+01,6.749200000000001205e-03,1.104154491002051720e-03
5.439999999999999858e+01,7.561799999999998731e-03,1.006585386343354389e-03
5.479999999999999716e+01,8.178200000000000053e-03,1.351333245354379526e-03
5.520000000000000284e+01,6.740799999999999917e-03,1.103124580453177959e-03
5.560000000000000142e+01,7.350999999999999028e-03,1.269910154302263854e-03
5.600000000000000000e+01,8.324399999999999161e-03,1.098980554878019669e-03
5.639999999999999858e+01,6.348399999999999703e-03,1.284542042908677975e-03
5.679999999999999716e+01,6.368000000000001264e-03,9.658993218757325454e-04
5.720000000000000284e+01,7.540400000000000054e-03,8.539400213129727350e-04
5.760000000000000142e+01,6.949199999999999995e-03,1.167143538730348136e-03
5.800000000000000000e+01,9.133999999999999758e-03,1.193502241304975281e-03
5.839999999999999858e+01,7.573000000000000738e-03,8.944908607694100231e-04
5.879999999999999716e+01,6.770199999999999656e-03,7.074892508017346883e-04
5.920000000000000284e+01,6.356800000000000124e-03,1.078896538135144714e-03
5.960000000000000142e+01,5.589600000000000124e-03,9.568167327132192897e-04
6.000000000000000000e+01,7.772600000000000169e-03,8.334128388739880239e-04
6.039999999999999858e+01,7.967600000000000030e-03,8.063143059626314566e-04
6.079999999999999716e+01,8.340799999999998909e-03,1.799403245523359656e-03
6.120000000000000284e+01,8.723200000000000398e-03,2.336802268057782805e-03
6.160000000000000142e+01,8.791999999999997734e-03,1.639434567160275285e-03
6.200000000000000000e+01,8.354000000000000314e-03,8.079131760282165812e-04
6.239999999999999858e+01,8.928200000000000719e-03,1.320374848291196212e-03
6.279999999999999716e+01,1.009379999999999999e-02,1.620828134010512478e-03
6.320000000000000284e+01,7.731000000000000025e-03,1.779566576444949937e-03
6.360000000000000142e+01,7.132000000000001186e-03,1.240941255660395811e-03
6.400000000000000000e+01,7.347399999999999591e-03,1.224778208493276614e-03
6.440000000000000568e+01,6.967400000000000329e-03,1.198223251318384286e-03
6.479999999999999716e+01,7.551600000000000326e-03,9.158571722708734120e-04
6.520000000000000284e+01,6.148599999999999725e-03,1.727707110594848584e-03
6.559999999999999432e+01,5.925600000000000485e-03,1.509977370691362392e-03
6.600000000000000000e+01,6.744999999999999260e-03,1.329828522780287072e-03
6.640000000000000568e+01,5.990999999999999798e-03,1.130214315959588399e-03
6.679999999999999716e+01,7.009400000000000699e-03,8.902694872902247288e-04
6.720000000000000284e+01,6.999800000000000466e-03,8.812167383793842066e-04
6.759999999999999432e+01,5.603000000000000341e-03,1.180364858846619409e-03
6.800000000000000000e+01,6.751000000000000056e-03,1.615643648828540531e-03
6.840000000000000568e+01,6.591600000000000410e-03,1.036216849891951914e-03
6.879999999999999716e+01,6.963000000000001306e-03,1.295591988243212324e-03
6.920000000000000284e+01,8.616799999999999113e-03,1.837984940090641589e-03
6.959999999999999432e+01,7.794399999999999940e-03,1.487039091617970918e-03
7.000000000000000000e+01,7.207800000000000318e-03,1.055569012428841501e-03
7.040000000000000568e+01,5.580400000000000117e-03,1.161621134449610567e-03
7.079999999999999716e+01,7.762000000000000670e-03,1.352053290369872873e-03
7.120000000000000284e+01,7.001600000000001052e-03,1.380502249183245466e-03
7.159999999999999432e+01,7.201400000000001030e-03,1.531028334159756756e-03
7.200000000000000000e+01,6.562600000000000031e-03,9.923970274038512208e-04
7.240000000000000568e+01,7.982400000000000606e-03,1.098619388141316077e-03
7.279999999999999716e+01,7.749399999999999171e-03,1.115784997210484200e-03
7.320000000000000284e+01,6.385200000000000597e-03,2.576713798620249799e-04
7.359999999999999432e+01,6.010999999999999850e-03,6.312025823774804201e-04
7.400000000000000000e+01,7.380400000000000502e-03,6.604763129742050477e-04
7.440000000000000568e+01,6.999000000000000013e-03,9.478044102028647389e-04
7.479999999999999716e+01,6.183599999999999167e-03,4.998868471964430489e-04
7.520000000000000284e+01,6.993200000000000631e-03,6.572803359298071873e-04
7.559999999999999432e+01,7.375000000000001346e-03,2.008096113237611521e-04
7.600000000000000000e+01,7.584399999999999822e-03,7.657057267645316816e-04
7.640000000000000568e+01,7.119000000000000328e-03,1.076962255606016706e-03
7.679999999999999716e+01,6.580600000000000685e-03,1.083469501185889330e-03
7.720000000000000284e+01,5.995200000000000008e-03,1.578665588400532437e-03
7.759999999999999432e+01,4.985199999999999528e-03,1.400614843559784637e-03
7.800000000000000000e+01,4.214800000000000317e-03,1.270739052677614120e-03
7.840000000000000568e+01,4.598600000000000430e-03,9.478863644973482090e-04
7.879999999999999716e+01,4.995000000000000308e-03,9.068653152480802161e-04
7.920000000000000284e+01,4.968200000000000741e-03,5.004009792156686402e-04
7.959999999999999432e+01,4.754399999999999772e-03,5.163587512573017749e-04
8.000000000000000000e+01,4.229600000000000026e-03,9.595243926029187187e-04
8.040000000000000568e+01,5.576399999999999586e-03,8.756052535246691432e-04
8.079999999999999716e+01,5.142599999999999776e-03,3.397446982662127597e-04
8.120000000000000284e+01,4.919800000000000215e-03,4.940758443801922467e-04
8.159999999999999432e+01,4.960399999999999358e-03,9.296828276353178442e-04
8.200000000000000000e+01,6.401399999999999799e-03,9.901187100545064124e-04
8.240000000000000568e+01,6.361999999999999600e-03,7.253663212474096081e-04
8.279999999999999716e+01,7.585400000000000822e-03,1.329323798026650714e-03
8.320000000000000284e+01,8.183199999999999849e-03,1.307069102993410788e-03
8.359999999999999432e+01,7.371199999999999627e-03,1.306562030674395360e-03
8.400000000000000000e+01,7.138800000000000701e-03,1.341020484556444074e-03
8.440000000000000568e+01,7.366799999999999737e-03,1.091377450747448843e-03
8.479999999999999716e+01,6.758000000000000118e-03,1.218249440796095612e-03
8.520000000000000284e+01,8.380799999999999014e-03,1.248598069836726748e-03
8.559999999999999432e+01,6.554200000000000477e-03,8.717282489400006657e-04
8.600000000000000000e+01,5.942199999999999913e-03,9.541186194598656745e-04
8.640000000000000568e+01,5.508000000000000743e-03,1.207931868939635068e-03
8.679999999999999716e+01,5.074600000000000291e-03,1.191467775476953575e-03
8.720000000000000284e+01,4.490199999999999747e-03,6.494200027717039270e-04
8.759999999999999432e+01,5.109399999999999185e-03,9.834048810129017437e-04
8.800000000000000000e+01,4.659399999999999306e-03,1.024551443315561191e-03
8.840000000000000568e+01,3.676799999999999600e-03,4.878389488345513344e-04
8.879999999999999716e+01,3.905000000000000051e-03,1.021988502870751483e-03
8.920000000000000284e+01,4.090600000000000659e-03,1.549741159032694661e-03
8.959999999999999432e+01,4.904400000000000599e-03,1.051046411915287394e-03
9.000000000000000000e+01,4.940200000000000494e-03,9.636870550131926413e-04
9.040000000000000568e+01,5.341999999999999527e-03,1.491257187744622322e-03
9.079999999999999716e+01,5.955199999999999903e-03,6.030754015875626917e-04
9.120000000000000284e+01,4.952599999999999711e-03,1.311864535689565882e-03
9.159999999999999432e+01,5.775399999999999978e-03,1.091304705387088339e-03
9.200000000000000000e+01,5.501799999999999399e-03,1.706045204559363156e-03
9.240000000000000568e+01,4.707999999999999512e-03,1.161370182155543364e-03
9.279999999999999716e+01,5.784199999999998891e-03,1.471385007399491143e-03
9.320000000000000284e+01,5.156800000000000446e-03,1.085064993445093067e-03
9.359999999999999432e+01,5.764199999999999706e-03,1.175852431217454990e-03
9.400000000000000000e+01,5.351400000000000948e-03,1.368505411023281278e-03
9.440000000000000568e+01,5.352199999999999666e-03,1.468912502499723207e-03
9.479999999999999716e+01,6.001199999999999937e-03,8.198486689627543060e-04
9.520000000000000284e+01,5.160799999999999242e-03,1.157378304617811366e-03
9.559999999999999432e+01,6.384400000000000144e-03,1.436905619725944213e-03
9.600000000000000000e+01,5.575999999999999360e-03,1.309122721520026254e-03
9.640000000000000568e+01,5.399000000000000153e-03,1.179253365481735703e-03
9.679999999999999716e+01,4.986199999999999660e-03,1.237425327039979196e-03
9.720000000000000284e+01,5.409799999999999331e-03,1.670004862268370527e-03
9.759999999999999432e+01,5.781600000000000454e-03,8.349085339125477279e-04
9.800000000000000000e+01,5.816599999999999895e-03,1.725325088208016404e-03
9.840000000000000568e+01,5.790599999999999914e-03,1.583480426149941030e-03
9.879999999999999716e+01,4.548200000000000506e-03,7.968660740676565459e-04
9.920000000000000284e+01,5.578200000000000172e-03,1.214437128879053765e-03
9.959999999999999432e+01,6.367199999999999076e-03,5.850442205508913024e-04
1.000000000000000000e+02,5.548600000000000754e-03,7.596716790824834540e-04
1.004000000000000057e+02,4.936000000000000283e-03,7.606579388923775595e-04
1.007999999999999972e+02,5.361599999999999352e-03,9.681857053272372501e-04
1.012000000000000028e+02,5.147200000000000213e-03,8.682124394409468891e-04
1.015999999999999943e+02,5.552200000000000191e-03,1.543976405260132165e-03
1.020000000000000000e+02,6.356000000000000538e-03,1.323290859939718579e-03
1.024000000000000057e+02,5.123799999999999535e-03,5.297010855189934059e-04
1.027999999999999972e+02,5.770399999999999315e-03,1.361963788064866074e-03
1.032000000000000028e+02,5.136799999999999526e-03,9.316347674920682489e-04
1.035999999999999943e+02,5.526200000000000209e-03,6.584938420365068308e-04
1.040000000000000000e+02,6.733399999999998761e-03,8.473072996262925784e-04
1.044000000000000057e+02,6.151399999999999577e-03,9.697506174269752326e-04
1.047999999999999972e+02,6.164000000000000208e-03,1.154078810133866029e-03
1.052000000000000028e+02,6.558600000000000367e-03,9.875690659391879109e-04
1.055999999999999943e+02,6.772000000000000242e-03,1.386002849924919834e-03
1.060000000000000000e+02,6.571400000000000678e-03,1.602932394082794663e-03
1.064000000000000057e+02,5.762200000000000308e-03,1.547765208292265588e-03
