timestep,H(t)_mean,H(t)_err
4.000000000000000222e-01,6.689898000000000788e-01,3.199330242410133320e-04
8.000000000000000444e-01,4.939073999999999964e-01,2.959946958984207557e-04
1.199999999999999956e+00,3.982481999999999966e-01,5.951923554616601365e-04
1.600000000000000089e+00,3.338959999999999706e-01,6.214169292833920596e-04
2.000000000000000000e+00,2.847544000000000186e-01,5.510115788257142610e-04
2.399999999999999911e+00,2.465942000000000134e-01,5.771850136654649429e-04
2.799999999999999822e+00,2.165873999999999577e-01,3.901919527617114499e-04
3.200000000000000178e+00,1.922553999999999930e-01,2.952608338401844969e-04
3.600000000000000089e+00,1.715611999999999693e-01,3.231331614056350303e-04
4.000000000000000000e+00,1.549119999999999941e-01,2.559099450978787201e-04
4.400000000000000355e+00,1.404074000000000155e-01,4.662785219158194650e-04
4.799999999999999822e+00,1.276448000000000027e-01,1.664903600812970685e-04
5.200000000000000178e+00,1.167341999999999824e-01,2.109882461181181613e-04
5.599999999999999645e+00,1.068767999999999940e-01,3.013525178258849384e-04
6.000000000000000000e+00,9.892279999999999129e-02,2.626972401834465321e-04
6.400000000000000355e+00,9.144400000000001139e-02,2.710553449021069553e-04
6.799999999999999822e+00,8.480240000000001388e-02,1.415742208172091597e-04
7.200000000000000178e+00,7.900339999999998752e-02,3.471872117460556885e-04
7.599999999999999645e+00,7.388980000000000548e-02,4.267771549649749716e-04
8.000000000000000000e+00,6.875459999999999905e-02,4.427392686446508948e-04
8.400000000000000355e+00,6.439219999999998278e-02,4.901506299088057407e-04
8.800000000000000711e+00,6.089340000000000724e-02,3.238806261572309058e-04
9.199999999999999289e+00,5.737219999999999820e-02,2.329314062122149844e-04
9.599999999999999645e+00,5.410600000000000132e-02,2.958780154049971177e-04
1.000000000000000000e+01,5.152220000000000411e-02,9.518161587197376252e-05
1.040000000000000036e+01,4.868059999999999748e-02,2.985117418126131831e-04
1.080000000000000071e+01,4.627260000000000401e-02,1.998683566750874326e-04
1.119999999999999929e+01,4.399179999999999757e-02,1.463814879006217391e-04
1.159999999999999964e+01,4.192659999999999443e-02,2.356322558564515545e-04
1.200000000000000000e+01,4.026100000000000512e-02,1.734900573519991746e-04
1.240000000000000036e+01,3.817319999999999741e-02,2.273929198545982335e-04
1.280000000000000071e+01,3.632839999999999681e-02,2.599989615363875665e-04
1.319999999999999929e+01,3.455420000000000019e-02,2.447354490056552955e-04
1.359999999999999964e+01,3.331880000000000258e-02,1.791760028575253535e-04
1.400000000000000000e+01,3.195719999999999811e-02,1.442821541286380465e-04
1.440000000000000036e+01,3.065499999999999822e-02,8.665737129638778082e-05
1.480000000000000071e+01,2.961420000000000025e-02,6.741691182485268989e-05
1.519999999999999929e+01,2.820399999999999990e-02,6.239310859381792210e-05
1.559999999999999964e+01,2.754320000000000032e-02,1.094309828156544360e-04
1.600000000000000000e+01,2.661440000000000333e-02,1.951001281393735954e-04
1.639999999999999858e+01,2.558520000000000238e-02,3.036292805379613266e-04
1.680000000000000071e+01,2.448059999999999820e-02,3.340458950503660623e-04
1.719999999999999929e+01,2.378399999999999959e-02,2.728472099912329510e-04
1.760000000000000142e+01,2.284399999999999972e-02,1.412416369205628523e-04
1.800000000000000000e+01,2.209880000000000178e-02,9.704967800049607671e-05
1.839999999999999858e+01,2.143940000000000082e-02,1.206128517198729641e-04
1.880000000000000071e+01,2.100540000000000046e-02,1.236723898046771615e-04
1.919999999999999929e+01,2.040619999999999934e-02,1.335040823345862800e-04
1.960000000000000142e+01,1.961940000000000212e-02,1.403351702175900000e-04
2.000000000000000000e+01,1.905000000000000096e-02,1.034098641329732110e-04
2.039999999999999858e+01,1.849560000000000093e-02,1.260565746004543625e-04
2.080000000000000071e+01,1.790920000000000012e-02,7.706192315274771243e-05
2.119999999999999929e+01,1.754539999999999919e-02,9.908410568804716960e-05
2.160000000000000142e+01,1.690919999999999923e-02,9.342986674506163064e-05
2.200000000000000000e+01,1.623959999999999987e-02,4.921341280586009019e-05
2.239999999999999858e+01,1.605460000000000220e-02,5.565033692620378523e-05
2.280000000000000071e+01,1.551299999999999901e-02,9.692935571848218317e-05
2.319999999999999929e+01,1.514320000000000076e-02,1.022758035900966250e-04
2.360000000000000142e+01,1.485380000000000034e-02,6.503414487790250905e-05
2.400000000000000000e+01,1.459879999999999858e-02,1.198262909381743235e-04
2.439999999999999858e+01,1.431179999999999952e-02,1.812565585020302686e-04
2.480000000000000071e+01,1.372119999999999937e-02,1.291779392930541030e-04
2.519999999999999929e+01,1.346080000000000020e-02,1.405526235970001880e-04
2.560000000000000142e+01,1.333200000000000010e-02,1.056442142287025878e-04
2.600000000000000000e+01,1.298780000000000247e-02,6.142833222544792594e-05
2.639999999999999858e+01,1.238719999999999752e-02,9.720308637075276471e-05
2.680000000000000071e+01,1.228719999999999986e-02,1.495457789441081411e-04
2.719999999999999929e+01,1.191579999999999896e-02,8.113038888110912219e-05
2.760000000000000142e+01,1.164040000000000040e-02,6.846721843334943169e-05
2.800000000000000000e+01,1.135399999999999951e-02,8.773995669021030939e-05
2.839999999999999858e+01,1.109019999999999971e-02,1.486059891121485003e-04
2.880000000000000071e+01,1.095279999999999865e-02,1.239638657028732031e-04
2.919999999999999929e+01,1.077639999999999848e-02,9.269012892428183574e-05
2.960000000000000142e+01,1.061739999999999906e-02,8.769526783128020475e-05
3.000000000000000000e+01,1.039780000000000044e-02,4.951100887681447255e-05
3.039999999999999858e+01,1.029640000000000069e-02,1.603342134417978597e-04
3.080000000000000071e+01,1.007260000000000100e-02,1.644003041359718982e-04
3.119999999999999929e+01,9.883599999999999330e-03,1.151145516431351118e-04
3.160000000000000142e+01,9.722800000000000192e-03,1.527378145712451028e-04
3.200000000000000000e+01,9.417800000000000477e-03,9.373547887539702842e-05
3.239999999999999858e+01,9.171199999999999145e-03,1.517759532995923853e-04
3.279999999999999716e+01,8.993400000000002087e-03,9.225323842554247842e-05
3.320000000000000284e+01,8.947399999999999451e-03,7.588715306295250394e-05
3.360000000000000142e+01,8.838799999999999088e-03,1.339609644635330699e-04
3.400000000000000000e+01,8.628000000000000252e-03,1.122274476231195276e-04
3.439999999999999858e+01,8.479999999999999691e-03,1.000434905428634273e-04
3.479999999999999716e+01,8.428599999999999634e-03,6.089219982887779565e-05
3.520000000000000284e+01,8.277999999999998901e-03,7.959459780663517825e-05
3.560000000000000142e+01,8.047399999999999692e-03,7.189895687699500665e-05
3.600000000000000000e+01,7.988399999999999668e-03,9.169983642297291999e-05
3.639999999999999858e+01,7.839599999999998653e-03,4.089572104756184146e-05
3.679999999999999716e+01,7.692200000000000600e-03,7.107840741040841463e-05
3.720000000000000284e+01,7.590399999999999751e-03,7.083332549019571360e-05
3.760000000000000142e+01,7.508599999999999823e-03,1.252719441854399434e-04
3.800000000000000000e+01,7.256600000000000203e-03,1.142421113250275332e-04
3.839999999999999858e+01,7.085800000000000605e-03,5.477535942374101724e-05
3.879999999999999716e+01,7.021200000000000011e-03,1.740865876510881097e-04
3.920000000000000284e+01,6.813399999999999838e-03,6.804233975988766068e-05
3.960000000000000142e+01,6.734600000000000308e-03,7.980012531318479805e-05
4.000000000000000000e+01,6.648999999999999529e-03,9.399202093794987783e-05
4.039999999999999858e+01,6.643800000000000053e-03,1.009407747146810438e-04
4.079999999999999716e+01,6.569000000000000186e-03,5.247475583554452895e-05
4.120000000000000284e+01,6.430999999999999217e-03,6.154835497395520598e-05
4.160000000000000142e+01,6.268999999999999399e-03,9.412066723095414945e-05
4.200000000000000000e+01,6.114800000000000964e-03,6.946178805645595222e-05
4.239999999999999858e+01,6.047199999999999971e-03,6.242867930686995712e-05
4.279999999999999716e+01,5.929399999999999601e-03,7.432671121474434422e-05
4.320000000000000284e+01,5.839999999999999705e-03,9.047209514540935696e-05
4.360000000000000142e+01,5.788200000000001157e-03,1.286947551378842956e-04
4.400000000000000000e+01,5.829599999999999886e-03,1.085088014863311323e-04
4.439999999999999858e+01,5.855799999999999547e-03,7.348088186732653986e-05
4.479999999999999716e+01,5.779399999999999642e-03,6.579559255755657336e-05
4.520000000000000284e+01,5.707600000000000173e-03,4.153865669469824134e-05
4.560000000000000142e+01,5.617800000000000051e-03,4.836155497913613329e-05
4.600000000000000000e+01,5.621000000000000128e-03,4.923311893431086015e-05
4.639999999999999858e+01,5.410400000000000105e-03,3.569537785204122358e-05
4.679999999999999716e+01,5.315000000000000280e-03,1.498332406377174179e-05
4.720000000000000284e+01,5.256399999999999614e-03,5.100843067572266798e-05
4.760000000000000142e+01,5.185799999999999958e-03,5.604944245931445831e-05
4.800000000000000000e+01,5.129800000000000332e-03,5.273651486399154700e-05
4.839999999999999858e+01,5.003600000000000408e-03,5.468052669826796506e-05
4.879999999999999716e+01,4.838799999999999872e-03,3.966913157607556507e-05
4.920000000000000284e+01,4.725799999999999619e-03,6.731225742760377857e-05
4.960000000000000142e+01,4.752000000000000147e-03,7.283680388375093971e-05
5.000000000000000000e+01,4.779999999999999527e-03,6.759585786126248762e-05
5.039999999999999858e+01,4.782800000000000246e-03,4.867175772457779334e-05
5.079999999999999716e+01,4.856599999999999979e-03,7.430787306874016599e-05
5.120000000000000284e+01,4.749200000000000296e-03,3.512178810937731729e-05
5.160000000000000142e+01,4.623200000000000053e-03,7.281991485850555670e-05
5.200000000000000000e+01,4.633199999999999645e-03,9.526142976042307120e-05
5.239999999999999858e+01,4.571400000000000637e-03,7.835598254122010152e-05
5.279999999999999716e+01,4.530399999999999532e-03,7.552191734854204271e-05
5.320000000000000284e+01,4.447800000000000017e-03,5.052563705684475794e-05
5.360000000000000142e+01,4.410999999999999990e-03,8.140454532764124739e-05
5.400000000000000000e+01,4.374400000000000510e-03,5.583242785335408120e-05
5.439999999999999858e+01,4.333399999999999405e-03,7.628210799394573500e-05
5.479999999999999716e+01,4.292200000000000355e-03,4.712048386848337637e-05
5.520000000000000284e+01,4.329000000000000382e-03,4.780271958790629789e-05
5.560000000000000142e+01,4.272799999999999342e-03,4.965017623332269490e-05
5.600000000000000000e+01,4.211399999999999692e-03,1.040397039595942011e-04
5.639999999999999858e+01,4.170000000000000095e-03,6.236104553324931193e-05
5.679999999999999716e+01,3.981800000000000617e-03,3.558286104292345670e-05
5.720000000000000284e+01,4.024600000000000573e-03,5.411709526572913346e-05
5.760000000000000142e+01,3.996600000000000326e-03,5.895472839391252621e-05
5.800000000000000000e+01,3.967400000000000267e-03,4.825411899516973159e-05
5.839999999999999858e+01,3.895400000000000251e-03,1.715400827795063340e-05
5.879999999999999716e+01,3.876399999999999898e-03,4.202689614996569064e-05
5.920000000000000284e+01,3.920599999999999780e-03,6.239439077353031422e-05
5.960000000000000142e+01,3.835000000000000301e-03,6.449263523845175734e-05
6.000000000000000000e+01,3.761599999999999493e-03,5.463021142188625464e-05
6.039999999999999858e+01,3.664400000000000383e-03,4.338963009752449108e-05
6.079999999999999716e+01,3.672000000000000351e-03,5.389248556153261675e-05
6.120000000000000284e+01,3.720400000000000009e-03,5.637605874837293035e-05
6.160000000000000142e+01,3.597000000000000371e-03,4.636054356885820857e-05
6.200000000000000000e+01,3.586400000000000005e-03,3.747612573359201363e-05
6.239999999999999858e+01,3.546800000000000126e-03,2.583679546693045889e-05
6.279999999999999716e+01,3.420399999999999656e-03,3.517754965883780561e-05
6.320000000000000284e+01,3.392599999999999956e-03,3.250476888088883385e-05
6.360000000000000142e+01,3.349999999999999679e-03,6.452596376653350820e-05
6.400000000000000000e+01,3.361400000000000499e-03,6.917268246931006313e-05
6.440000000000000568e+01,3.327800000000000116e-03,6.262858772158291895e-05
6.479999999999999716e+01,3.312999999999999973e-03,3.859015418471398873e-05
6.520000000000000284e+01,3.382399999999999816e-03,5.199288412850356945e-05
6.559999999999999432e+01,3.325000000000000264e-03,4.269660408041837669e-05
6.600000000000000000e+01,3.192400000000000185e-03,7.286672766084668798e-05
6.640000000000000568e+01,3.148600000000000097e-03,6.928968177153075768e-05
6.679999999999999716e+01,3.202800000000000005e-03,8.530146540359083060e-05
6.720000000000000284e+01,3.207599999999999254e-03,8.418111427155139479e-05
6.759999999999999432e+01,3.148399999999999983e-03,1.023916988822824525e-04
6.800000000000000000e+01,3.117600000000000319e-03,5.479014509927855543e-05
6.840000000000000568e+01,3.141000000000000129e-03,8.326523884551101970e-05
6.879999999999999716e+01,3.060400000000000013e-03,9.060275933987886881e-05
6.920000000000000284e+01,3.130800000000000423e-03,5.801672172744680336e-05
6.959999999999999432e+01,3.015000000000000319e-03,2.366220615242796475e-05
7.000000000000000000e+01,2.946999999999999967e-03,4.235327614246629411e-05
7.040000000000000568e+01,2.911999999999999658e-03,3.561319980007412886e-05
7.079999999999999716e+01,2.836799999999999565e-03,2.130352083576790876e-05
7.120000000000000284e+01,2.918000000000000021e-03,6.235463094269746802e-05
7.159999999999999432e+01,2.857599999999999637e-03,4.498288563442764178e-05
7.200000000000000000e+01,2.816200000000000040e-03,4.789718154547298968e-05
7.240000000000000568e+01,2.818999999999999891e-03,3.675731219771111093e-05
7.279999999999999716e+01,2.784000000000000016e-03,4.956914362786591358e-05
7.320000000000000284e+01,2.770600000000000233e-03,6.373350767061231655e-05
7.359999999999999432e+01,2.673799999999999615e-03,6.145681410551636042e-05
7.400000000000000000e+01,2.674800000000000181e-03,9.467122054774619209e-05
7.440000000000000568e+01,2.666199999999999647e-03,6.498876826036939264e-05
7.479999999999999716e+01,2.648800000000000199e-03,5.575517913162869669e-05
7.520000000000000284e+01,2.632600000000000131e-03,8.851926344022527946e-05
7.559999999999999432e+01,2.607600000000000282e-03,1.022930105139153588e-04
7.600000000000000000e+01,2.453400000000000112e-03,9.243570738626926276e-05
7.640000000000000568e+01,2.476600000000000242e-03,4.764724546078188792e-05
7.679999999999999716e+01,2.414799999999999933e-03,4.372687960511244888e-05
7.720000000000000284e+01,2.426800000000000224e-03,6.667488282704367951e-05
7.759999999999999432e+01,2.386999999999999799e-03,8.748999942850604807e-05
7.800000000000000000e+01,2.440200000000000008e-03,5.054641431397483155e-05
7.840000000000000568e+01,2.485400000000000022e-03,4.839070158615185470e-05
7.879999999999999716e+01,2.503199999999999696e-03,5.013322251760805442e-05
7.920000000000000284e+01,2.508999999999999946e-03,4.729164831130334209e-05
7.959999999999999432e+01,2.457599999999999889e-03,4.681303237347481886e-05
8.000000000000000000e+01,2.450199999999999600e-03,4.310266813087096339e-05
8.040000000000000568e+01,2.360800000000000138e-03,4.204687859996264417e-05
8.079999999999999716e+01,2.362200000000000064e-03,6.703238023522662369e-05
8.120000000000000284e+01,2.374400000000000035e-03,4.916563840732672596e-05
8.159999999999999432e+01,2.332199999999999985e-03,7.007667229542223855e-05
8.200000000000000000e+01,2.359800000000000005e-03,5.188583621760375583e-05
8.240000000000000568e+01,2.247999999999999998e-03,4.010610926031098872e-05
8.279999999999999716e+01,2.297800000000000016e-03,7.564482797918171345e-05
8.320000000000000284e+01,2.311200000000000233e-03,4.390831356360659881e-05
8.359999999999999432e+01,2.337000000000000102e-03,6.748110846748145647e-05
8.400000000000000000e+01,2.330799999999999626e-03,1.039290142356791779e-04
8.440000000000000568e+01,2.317199999999999729e-03,8.336030230271485823e-05
8.479999999999999716e+01,2.155800000000000251e-03,6.257906998350169878e-05
8.520000000000000284e+01,2.213000000000000123e-03,2.470425064639683563e-05
8.559999999999999432e+01,2.300400000000000188e-03,4.024002982106251081e-05
8.600000000000000000e+01,2.185799999999999462e-03,1.923382437270344252e-05
8.640000000000000568e+01,2.134599999999999952e-03,2.879861107761965216e-05
8.679999999999999716e+01,2.181600000000000119e-03,4.998059623493907174e-05
8.720000000000000284e+01,2.192199999999999618e-03,5.858361545688352089e-05
8.759999999999999432e+01,2.169200000000000034e-03,7.798102333260316756e-05
8.800000000000000000e+01,2.134400000000000273e-03,5.528435583417789313e-05
8.840000000000000568e+01,2.104400000000000194e-03,4.958991833024126671e-05
8.879999999999999716e+01,2.157000000000000063e-03,1.675410397484747556e-05
8.920000000000000284e+01,2.135999999999999878e-03,2.839366126444420676e-05
8.959999999999999432e+01,2.018400000000000055e-03,2.379201546737898679e-05
9.000000000000000000e+01,2.021400000000000020e-03,4.382761686425578750e-05
9.040000000000000568e+01,1.994399999999999906e-03,5.648946804493738919e-05
9.079999999999999716e+01,1.965799999999999752e-03,5.213482521309529123e-05
9.120000000000000284e+01,1.936999999999999920e-03,5.061719075571063871e-05
9.159999999999999432e+01,1.932600000000000246e-03,2.305992194262590085e-05
9.200000000000000000e+01,1.959799999999999823e-03,4.825909240754534715e-05
9.240000000000000568e+01,2.007999999999999802e-03,6.856821421037595716e-05
9.279999999999999716e+01,1.934200000000000069e-03,7.719870465234499350e-05
9.320000000000000284e+01,1.930999999999999774e-03,7.027801932325643524e-05
9.359999999999999432e+01,1.983799999999999973e-03,4.523096284626272037e-05
9.400000000000000000e+01,1.965399999999999960e-03,3.732237934537398054e-05
9.440000000000000568e+01,1.912799999999999874e-03,5.729520049707480012e-05
9.479999999999999716e+01,1.944599999999999888e-03,4.495953736416779894e-05
9.520000000000000284e+01,1.956799999999999859e-03,2.567761671183679207e-05
9.559999999999999432e+01,1.910200000000000136e-03,3.729530801588855295e-05
9.600000000000000000e+01,1.937200000000000033e-03,8.144102160459427498e-05
9.640000000000000568e+01,1.918999999999999916e-03,2.527844931952910078e-05
9.679999999999999716e+01,1.900600000000000119e-03,5.245245466134064558e-05
9.720000000000000284e+01,1.870799999999999937e-03,5.602713628234085816e-05
9.759999999999999432e+01,1.900599999999999902e-03,5.741132292501191563e-05
9.800000000000000000e+01,1.863000000000000073e-03,7.028726769479662719e-05
9.840000000000000568e+01,1.866199999999999717e-03,7.115152844458085620e-05
9.879999999999999716e+01,1.836000000000000175e-03,5.060533568705971347e-05
9.920000000000000284e+01,1.798399999999999912e-03,4.898938660567203781e-05
9.959999999999999432e+01,1.837599999999999997e-03,4.950010100999792292e-05
1.000000000000000000e+02,1.771199999999999901e-03,1.791200714604594568e-05
1.004000000000000057e+02,1.819400000000000097e-03,2.977851574541617380e-05
1.007999999999999972e+02,1.768000000000000040e-03,2.385791273351466592e-05
1.012000000000000028e+02,1.748599999999999894e-03,2.060242704149198176e-05
1.015999999999999943e+02,1.810200000000000090e-03,3.515024893226218741e-05
1.020000000000000000e+02,1.737999999999999962e-03,5.845083404024275131e-05
1.024000000000000057e+02,1.745599999999999929e-03,1.906987152552425081e-05
1.027999999999999972e+02,1.734999999999999997e-03,3.735906851087162381e-05
1.032000000000000028e+02,1.736199999999999809e-03,5.615193674309016514e-05
1.035999999999999943e+02,1.689600000000000086e-03,6.728937508997985409e-05
1.040000000000000000e+02,1.715200000000000058e-03,3.624279238690087524e-05
1.044000000000000057e+02,1.707599999999999656e-03,3.097030836139672981e-05
1.047999999999999972e+02,1.648800000000000179e-03,2.099142682144309065e-05
1.052000000000000028e+02,1.593000000000000015e-03,4.447583613604130142e-05
1.055999999999999943e+02,1.591400000000000193e-03,3.635189128504869304e-05
1.060000000000000000e+02,1.586799999999999973e-03,5.058398956191574028e-05
1.064000000000000057e+02,1.550999999999999861e-03,3.416284531475680017e-05
