timestep,H(t)_mean,H(t)_err
4.000000000000000222e-01,7.152349999999999541e-01,7.934963219826526512e-03
8.000000000000000444e-01,5.536017999999999217e-01,5.205027016260331714e-03
1.199999999999999956e+00,4.583831999999999351e-01,6.187960685072268173e-03
1.600000000000000089e+00,4.049909999999999899e-01,7.250903467844544738e-03
2.000000000000000000e+00,3.599845999999999324e-01,6.779822111235663494e-03
2.399999999999999911e+00,3.287802000000000224e-01,1.400904349125949369e-02
2.799999999999999822e+00,3.065722000000000169e-01,7.134253691872757125e-03
3.200000000000000178e+00,2.824394000000000071e-01,8.764084245373265220e-03
3.600000000000000089e+00,2.621269999999999989e-01,8.476309556640792067e-03
4.000000000000000000e+00,2.369778000000000162e-01,8.352845774944016310e-03
4.400000000000000355e+00,2.257821999999999885e-01,5.124316904720079523e-03
4.799999999999999822e+00,2.132468000000000141e-01,6.400984247754403118e-03
5.200000000000000178e+00,2.011467999999999867e-01,5.773532431709377938e-03
5.599999999999999645e+00,1.923853999999999842e-01,6.322369797789433900e-03
6.000000000000000000e+00,1.771516000000000202e-01,4.370984815805241570e-03
6.400000000000000355e+00,1.691293999999999853e-01,6.251297342152271203e-03
6.799999999999999822e+00,1.550919999999999799e-01,3.791034726825910205e-03
7.200000000000000178e+00,1.558724000000000220e-01,6.863239603860555454e-03
7.599999999999999645e+00,1.446722000000000008e-01,6.658098612967519071e-03
8.000000000000000000e+00,1.398227999999999971e-01,4.375495245112260428e-03
8.400000000000000355e+00,1.390096000000000109e-01,7.542765312536243300e-03
8.800000000000000711e+00,1.321511999999999687e-01,5.222415824118181032e-03
9.199999999999999289e+00,1.244877999999999957e-01,1.844875697709737368e-03
9.599999999999999645e+00,1.212453999999999893e-01,5.455988385251566916e-03
1.000000000000000000e+01,1.125700000000000173e-01,4.816087000875294774e-03
1.040000000000000036e+01,1.066780000000000089e-01,4.107349230343091545e-03
1.080000000000000071e+01,9.834260000000000224e-02,3.569636264383248530e-03
1.119999999999999929e+01,9.900640000000000829e-02,4.045986623803887565e-03
1.159999999999999964e+01,9.550140000000000018e-02,5.458344250777887562e-03
1.200000000000000000e+01,9.439279999999999893e-02,9.221674627745221273e-03
1.240000000000000036e+01,8.714940000000000186e-02,6.300904566806259446e-03
1.280000000000000071e+01,8.942780000000001561e-02,6.348197991556342977e-03
1.319999999999999929e+01,8.580879999999999064e-02,7.263672489863512265e-03
1.359999999999999964e+01,8.270139999999999436e-02,6.341071538785852946e-03
1.400000000000000000e+01,8.590559999999999863e-02,6.536856282648410496e-03
1.440000000000000036e+01,8.491920000000000024e-02,6.971129380523646835e-03
1.480000000000000071e+01,7.797859999999999514e-02,4.886705603983116861e-03
1.519999999999999929e+01,7.160120000000000373e-02,3.918322120500047565e-03
1.559999999999999964e+01,6.879140000000000255e-02,2.802729287676567361e-03
1.600000000000000000e+01,7.051919999999999022e-02,3.935223124550880740e-03
1.639999999999999858e+01,6.800739999999999563e-02,6.634995324791117914e-03
1.680000000000000071e+01,6.628499999999999670e-02,5.688256472769136381e-03
1.719999999999999929e+01,5.977940000000000337e-02,4.178869268115480325e-03
1.760000000000000142e+01,5.567919999999999814e-02,4.544556319378162748e-03
1.800000000000000000e+01,5.220000000000000334e-02,3.157024310961193455e-03
1.839999999999999858e+01,5.357459999999999306e-02,1.028863479767845330e-03
1.880000000000000071e+01,5.803160000000000263e-02,2.946628931508003726e-03
1.919999999999999929e+01,5.839400000000000146e-02,2.979464163234724593e-03
1.960000000000000142e+01,5.213740000000000041e-02,2.532346947003904971e-03
2.000000000000000000e+01,5.145480000000000192e-02,3.955502830235366196e-03
2.039999999999999858e+01,5.038179999999999742e-02,2.986418815236736857e-03
2.080000000000000071e+01,5.188600000000000156e-02,2.822500717448978187e-03
2.119999999999999929e+01,5.013019999999999976e-02,1.678047061318602325e-03
2.160000000000000142e+01,4.942919999999999953e-02,1.845764920026382290e-03
2.200000000000000000e+01,4.187439999999999912e-02,4.136864145702636233e-03
2.239999999999999858e+01,4.215839999999999865e-02,3.029392127143662027e-03
2.280000000000000071e+01,4.178160000000000901e-02,1.956153127952921667e-03
2.319999999999999929e+01,4.318460000000000354e-02,2.869871174809071265e-03
2.360000000000000142e+01,4.384399999999999409e-02,3.509501574297980639e-03
2.400000000000000000e+01,4.216980000000000034e-02,3.530602532146602697e-03
2.439999999999999858e+01,3.691160000000000274e-02,1.968529161582321853e-03
2.480000000000000071e+01,3.835600000000000120e-02,3.525583355985218402e-03
2.519999999999999929e+01,3.767220000000000291e-02,3.516696637471023162e-03
2.560000000000000142e+01,4.046379999999999422e-02,4.143160368607519406e-03
2.600000000000000000e+01,3.763759999999999328e-02,2.824416357409083832e-03
2.639999999999999858e+01,3.591339999999999810e-02,2.766973393439120521e-03
2.680000000000000071e+01,3.349520000000000275e-02,4.295340957362989154e-03
2.719999999999999929e+01,3.552740000000000065e-02,3.164526514346181936e-03
2.760000000000000142e+01,3.202939999999999954e-02,1.335569376707926347e-03
2.800000000000000000e+01,3.237800000000000400e-02,2.376575203943691924e-03
2.839999999999999858e+01,2.678379999999999650e-02,1.622606033515220942e-03
2.880000000000000071e+01,2.788919999999999594e-02,4.137195407519446769e-03
2.919999999999999929e+01,2.577259999999999968e-02,3.784709891127720476e-03
2.960000000000000142e+01,2.648519999999999694e-02,1.686474529899576781e-03
3.000000000000000000e+01,2.992080000000000434e-02,2.178230529581292631e-03
3.039999999999999858e+01,2.405979999999999924e-02,2.258323147824508291e-03
3.080000000000000071e+01,2.438320000000000071e-02,2.163264070796720728e-03
3.119999999999999929e+01,2.784419999999999604e-02,1.522365179580772478e-03
3.160000000000000142e+01,2.618859999999999591e-02,3.541127385452265842e-03
3.200000000000000000e+01,2.236420000000000075e-02,3.052788092875101562e-03
3.239999999999999858e+01,2.510239999999999694e-02,2.905034640068857640e-03
3.279999999999999716e+01,2.438680000000000361e-02,4.804392286231423323e-03
3.320000000000000284e+01,2.549540000000000139e-02,4.515252336248772730e-03
3.360000000000000142e+01,2.232460000000000000e-02,2.515538582490834969e-03
3.400000000000000000e+01,2.440099999999999908e-02,3.467699323759197705e-03
3.439999999999999858e+01,2.124539999999999762e-02,9.942138904682432804e-04
3.479999999999999716e+01,1.951059999999999947e-02,1.149317562730161908e-03
3.520000000000000284e+01,2.302080000000000098e-02,3.588602003566291557e-03
3.560000000000000142e+01,2.341220000000000107e-02,3.165825064655341560e-03
3.600000000000000000e+01,2.056580000000000213e-02,1.425011768372458007e-03
3.639999999999999858e+01,2.157719999999999777e-02,1.551468510798720670e-03
3.679999999999999716e+01,1.981799999999999881e-02,3.320538164213746382e-03
3.720000000000000284e+01,2.266480000000000231e-02,3.463429837603181332e-03
3.760000000000000142e+01,1.916499999999999801e-02,2.365263685088831412e-03
3.800000000000000000e+01,2.127459999999999768e-02,1.652129431975594195e-03
3.839999999999999858e+01,1.708180000000000115e-02,2.400212728072242778e-03
3.879999999999999716e+01,1.742880000000000124e-02,2.050814457721614713e-03
3.920000000000000284e+01,2.060000000000000026e-02,3.763020688223756363e-03
3.960000000000000142e+01,2.263319999999999915e-02,3.295719168861327604e-03
4.000000000000000000e+01,2.190560000000000077e-02,3.260243604395229519e-03
4.039999999999999858e+01,2.074539999999999718e-02,3.485160937460420657e-03
4.079999999999999716e+01,2.143479999999999691e-02,3.556555713045980206e-03
4.120000000000000284e+01,2.252499999999999641e-02,1.059612523519800351e-03
4.160000000000000142e+01,2.076060000000000058e-02,1.490915980194725508e-03
4.200000000000000000e+01,1.790380000000000096e-02,1.325789478009235236e-03
4.239999999999999858e+01,1.612879999999999869e-02,1.838513568076123855e-03
4.279999999999999716e+01,1.750399999999999873e-02,9.575145951890241727e-04
4.320000000000000284e+01,1.645300000000000235e-02,1.748183142579747213e-03
4.360000000000000142e+01,1.788700000000000012e-02,2.330629056714087714e-03
4.400000000000000000e+01,1.501780000000000129e-02,2.559430784373744033e-03
4.439999999999999858e+01,1.537040000000000108e-02,2.292569205062303453e-03
4.479999999999999716e+01,1.753500000000000197e-02,1.745470452342290629e-03
4.520000000000000284e+01,1.570660000000000112e-02,2.367051258422596480e-03
4.560000000000000142e+01,1.642460000000000100e-02,9.364720284130220859e-04
4.600000000000000000e+01,1.719659999999999939e-02,1.047783307750224007e-03
4.639999999999999858e+01,1.754100000000000104e-02,7.910833710804448431e-04
4.679999999999999716e+01,1.964180000000000439e-02,2.093274884003531403e-03
4.720000000000000284e+01,1.605880000000000155e-02,1.541271468625822483e-03
4.760000000000000142e+01,1.573880000000000418e-02,1.760052567396780832e-03
4.800000000000000000e+01,1.644319999999999810e-02,1.818780316585816032e-03
4.839999999999999858e+01,1.614420000000000438e-02,1.421413254475981146e-03
4.879999999999999716e+01,1.505199999999999941e-02,1.048124372390986424e-03
4.920000000000000284e+01,1.543079999999999972e-02,1.493466149599648575e-03
4.960000000000000142e+01,1.755759999999999960e-02,1.616410084106134366e-03
5.000000000000000000e+01,1.612640000000000254e-02,1.755025344546340361e-03
5.039999999999999858e+01,1.826039999999999955e-02,2.054526310369375261e-03
5.079999999999999716e+01,1.790839999999999793e-02,2.022538494071249564e-03
5.120000000000000284e+01,1.896280000000000188e-02,1.368507888176023757e-03
5.160000000000000142e+01,1.652899999999999855e-02,2.232411901957163589e-03
5.200000000000000000e+01,1.536900000000000245e-02,1.440122460070670640e-03
5.239999999999999858e+01,1.686900000000000205e-02,1.781571020195378378e-03
5.279999999999999716e+01,1.684940000000000049e-02,2.950563803750056325e-03
5.320000000000000284e+01,1.468000000000000208e-02,1.667959471929698987e-03
5.360000000000000142e+01,1.256560000000000142e-02,1.913765544678866677e-03
5.400000000000000000e+01,1.287640000000000139e-02,1.522265239700361416e-03
5.439999999999999858e+01,1.366700000000000206e-02,2.242568995594115301e-03
5.479999999999999716e+01,1.400140000000000065e-02,2.357813533763855433e-03
5.520000000000000284e+01,1.039559999999999963e-02,2.040463613985801609e-03
5.560000000000000142e+01,9.701800000000000007e-03,1.823455137918122753e-03
5.600000000000000000e+01,1.111840000000000050e-02,2.603438756721579081e-03
5.639999999999999858e+01,1.043260000000000021e-02,3.103248388382728179e-03
5.679999999999999716e+01,1.006739999999999892e-02,3.408040677574139359e-03
5.720000000000000284e+01,1.005499999999999970e-02,1.806023975477623290e-03
5.760000000000000142e+01,1.187559999999999831e-02,2.429856715940262573e-03
5.800000000000000000e+01,1.080019999999999938e-02,3.193119437164855003e-03
5.839999999999999858e+01,1.045839999999999791e-02,2.687779466399726515e-03
5.879999999999999716e+01,9.016200000000000256e-03,2.210262210689039296e-03
5.920000000000000284e+01,8.683399999999999105e-03,2.856991960086692137e-03
5.960000000000000142e+01,7.612999999999999975e-03,2.764528657836629825e-03
6.000000000000000000e+01,5.811399999999999552e-03,2.547251530571725819e-03
6.039999999999999858e+01,6.125199999999999916e-03,1.482849871025384474e-03
6.079999999999999716e+01,9.356800000000001921e-03,1.632573410294311991e-03
6.120000000000000284e+01,8.602800000000000724e-03,1.912482193381156645e-03
6.160000000000000142e+01,8.982600000000000307e-03,2.139954429421336499e-03
6.200000000000000000e+01,1.151960000000000137e-02,2.943859432785472015e-03
6.239999999999999858e+01,8.298400000000000915e-03,2.137257836574707557e-03
6.279999999999999716e+01,9.376799999999999372e-03,2.134124982281965233e-03
6.320000000000000284e+01,8.649199999999999250e-03,1.874800346703616154e-03
6.360000000000000142e+01,8.295199999999999102e-03,1.898591778134520180e-03
6.400000000000000000e+01,1.150179999999999952e-02,2.043383845487675276e-03
6.440000000000000568e+01,9.738199999999998940e-03,2.468158289089254949e-03
6.479999999999999716e+01,7.951800000000000188e-03,2.413666596694746206e-03
6.520000000000000284e+01,6.842199999999999671e-03,1.568477937364755890e-03
6.559999999999999432e+01,6.508600000000000670e-03,2.289472878197075251e-03
6.600000000000000000e+01,7.232800000000000167e-03,2.736837415704484501e-03
6.640000000000000568e+01,7.189200000000001492e-03,2.203612815355728439e-03
6.679999999999999716e+01,6.839799999999998312e-03,2.966888393586789019e-03
6.720000000000000284e+01,6.858400000000000607e-03,2.687464410927147430e-03
6.759999999999999432e+01,7.949200000000000016e-03,2.654542265626975896e-03
6.800000000000000000e+01,7.191999999999999608e-03,2.720604951109219759e-03
6.840000000000000568e+01,8.267800000000000496e-03,2.257406529626420407e-03
6.879999999999999716e+01,7.205599999999999505e-03,1.914114144976730453e-03
6.920000000000000284e+01,7.188400000000000171e-03,2.284337641418185492e-03
6.959999999999999432e+01,7.177599999999999258e-03,1.026481787466294957e-03
7.000000000000000000e+01,6.449599999999999778e-03,4.811040012305032145e-04
7.040000000000000568e+01,6.485000000000000313e-03,1.602947878129541703e-03
7.079999999999999716e+01,5.757399999999999324e-03,1.347725068402305659e-03
7.120000000000000284e+01,7.166200000000000174e-03,1.267882502442556868e-03
7.159999999999999432e+01,8.957200000000000231e-03,1.314832666159462165e-03
7.200000000000000000e+01,8.249400000000000482e-03,9.736384133753147501e-04
7.240000000000000568e+01,8.958400000000000044e-03,8.516831335655298358e-04
7.279999999999999716e+01,6.484000000000001047e-03,1.511658724712691259e-03
7.320000000000000284e+01,7.173999999999999821e-03,1.288754088257336797e-03
7.359999999999999432e+01,1.004859999999999955e-02,1.274116854923440685e-03
7.400000000000000000e+01,8.990200000000000274e-03,2.070936947374303790e-03
7.440000000000000568e+01,6.109400000000000074e-03,1.104772085092667246e-03
7.479999999999999716e+01,6.820399999999999900e-03,1.089695489574954478e-03
7.520000000000000284e+01,7.148999999999999973e-03,1.275831767906725027e-03
7.559999999999999432e+01,5.004999999999999900e-03,6.737035698287488538e-04
7.600000000000000000e+01,5.691400000000000105e-03,1.020141735250548179e-03
7.640000000000000568e+01,6.778600000000000077e-03,1.158681949458090004e-03
7.679999999999999716e+01,8.555200000000000651e-03,1.812447803386348349e-03
7.720000000000000284e+01,8.546999999999999043e-03,1.880686443828422701e-03
7.759999999999999432e+01,7.124000000000000124e-03,1.692722924757622495e-03
7.800000000000000000e+01,5.365799999999999563e-03,1.619913775483127318e-03
7.840000000000000568e+01,2.863800000000000113e-03,1.644232842391855519e-03
7.879999999999999716e+01,3.925599999999999576e-03,2.647450558556287570e-03
7.920000000000000284e+01,4.300399999999999362e-03,9.087970950657798261e-04
7.959999999999999432e+01,6.450000000000000004e-03,1.735017290980121665e-03
8.000000000000000000e+01,5.361400000000000540e-03,7.919175840957190038e-04
8.040000000000000568e+01,8.102600000000001468e-03,1.587718602271825843e-03
8.079999999999999716e+01,7.776199999999999606e-03,1.715226264957483721e-03
8.120000000000000284e+01,8.141399999999998291e-03,1.726265524187979529e-03
8.159999999999999432e+01,7.005399999999999301e-03,1.761732800398516574e-03
8.200000000000000000e+01,7.019799999999999651e-03,1.585655807544625838e-03
8.240000000000000568e+01,7.767599999999999505e-03,1.595388122056823951e-03
8.279999999999999716e+01,7.351199999999999575e-03,1.288982055732351608e-03
8.320000000000000284e+01,6.257400000000000635e-03,1.363143594783762860e-03
8.359999999999999432e+01,7.003799999999999262e-03,1.475529274531684658e-03
8.400000000000000000e+01,6.305999999999999106e-03,1.951154453137936328e-03
8.440000000000000568e+01,7.363999999999999886e-03,1.934006334012378136e-03
8.479999999999999716e+01,8.109399999999999248e-03,9.469280120473781617e-04
8.520000000000000284e+01,6.263199999999999150e-03,4.693506578241901368e-04
8.559999999999999432e+01,6.974200000000001579e-03,1.339766375156504650e-03
8.600000000000000000e+01,5.146799999999999986e-03,1.068882191824712096e-03
8.640000000000000568e+01,6.623200000000000094e-03,1.954061344994061089e-03
8.679999999999999716e+01,8.831200000000000855e-03,1.067986301410275580e-03
8.720000000000000284e+01,6.636799999999999991e-03,1.702878897631889725e-03
8.759999999999999432e+01,5.924999999999999711e-03,1.254093816267347512e-03
8.800000000000000000e+01,5.178199999999999990e-03,1.394061060355678830e-03
8.840000000000000568e+01,5.486399999999999784e-03,1.115228837503765350e-03
8.879999999999999716e+01,8.082400000000000001e-03,1.363655697014462499e-03
8.920000000000000284e+01,8.099200000000000843e-03,7.449845233291762939e-04
8.959999999999999432e+01,7.769400000000000091e-03,1.638227566609718258e-03
9.000000000000000000e+01,6.655400000000000552e-03,1.425482781376190364e-03
9.040000000000000568e+01,5.523999999999999397e-03,1.323801835623444022e-03
9.079999999999999716e+01,7.411599999999999959e-03,1.610025297937892411e-03
9.120000000000000284e+01,6.668599999999999355e-03,1.770089929918816076e-03
9.159999999999999432e+01,6.662800000000000840e-03,9.963903552323255357e-04
9.200000000000000000e+01,7.394199999999999211e-03,1.969080125337716990e-03
9.240000000000000568e+01,8.487800000000000206e-03,1.286017317146234814e-03
9.279999999999999716e+01,8.150800000000001447e-03,2.307214151308889603e-03
9.320000000000000284e+01,8.180599999999999677e-03,2.742099607964670373e-03
9.359999999999999432e+01,9.254200000000000620e-03,2.478702632426890533e-03
9.400000000000000000e+01,8.508800000000000391e-03,2.287703529743309420e-03
9.440000000000000568e+01,8.471600000000001005e-03,1.262995431504009653e-03
9.479999999999999716e+01,7.768200000000000278e-03,1.139496353658053405e-03
9.520000000000000284e+01,8.867800000000000335e-03,1.276882782404085764e-03
9.559999999999999432e+01,9.248599999999999183e-03,1.620362169393003071e-03
9.600000000000000000e+01,9.285199999999998663e-03,2.185130783271335350e-03
9.640000000000000568e+01,7.764600000000000841e-03,1.407485580743191586e-03
9.679999999999999716e+01,1.033799999999999997e-02,2.414928135576708927e-03
9.720000000000000284e+01,9.609799999999999939e-03,1.993857878586134322e-03
9.759999999999999432e+01,1.033659999999999961e-02,1.638032313478582922e-03
9.800000000000000000e+01,1.034820000000000011e-02,1.775276581268394856e-03
9.840000000000000568e+01,9.242000000000000215e-03,2.349193627609269530e-03
9.879999999999999716e+01,7.746800000000000734e-03,1.877214462974329326e-03
9.920000000000000284e+01,8.120600000000000387e-03,1.258137377236683181e-03
9.959999999999999432e+01,5.186000000000000505e-03,1.252497145705330382e-03
1.000000000000000000e+02,4.054799999999999897e-03,1.232714460043362985e-03
1.004000000000000057e+02,7.352799999999999614e-03,5.431965021978693575e-04
1.007999999999999972e+02,7.023000000000001464e-03,1.112980098654059490e-03
1.012000000000000028e+02,8.118000000000000216e-03,9.708886135906629172e-04
1.015999999999999943e+02,6.266000000000000736e-03,9.426181093104462130e-04
1.020000000000000000e+02,5.549799999999999699e-03,1.048740311039868386e-03
1.024000000000000057e+02,5.538000000000000388e-03,1.298999730561942872e-03
1.027999999999999972e+02,6.282799999999999843e-03,9.802253516411417022e-04
1.032000000000000028e+02,9.183000000000000190e-03,1.124869459092920493e-03
1.035999999999999943e+02,9.935799999999999840e-03,1.831244205451582931e-03
1.040000000000000000e+02,6.268000000000000134e-03,1.407262164630315076e-03
1.044000000000000057e+02,5.879399999999999904e-03,1.070850344352561583e-03
1.047999999999999972e+02,6.601999999999999362e-03,1.582282781300485422e-03
1.052000000000000028e+02,6.604999999999999760e-03,2.211060175571890295e-03
1.055999999999999943e+02,6.965800000000001158e-03,1.565369362163447934e-03
1.060000000000000000e+02,5.851999999999999563e-03,1.863791726561742036e-03
1.064000000000000057e+02,5.512200000000000086e-03,1.288622846297550386e-03
