timestep,H(t)_mean,H(t)_err
4.000000000000000222e-01,7.927845999999999504e-01,2.113665597960090979e-03
8.000000000000000444e-01,6.905992000000000797e-01,3.574245142683975078e-03
1.199999999999999956e+00,6.189326000000000549e-01,4.554266401957624694e-03
1.600000000000000089e+00,5.657490000000000574e-01,5.048697485490682806e-03
2.000000000000000000e+00,5.231542000000000137e-01,4.737819914264367223e-03
2.399999999999999911e+00,4.860018000000000393e-01,4.484440292834773051e-03
2.799999999999999822e+00,4.550497999999999488e-01,4.746406444880169051e-03
3.200000000000000178e+00,4.276168000000000191e-01,4.652442986217029605e-03
3.600000000000000089e+00,4.020955999999999975e-01,4.360248761252043768e-03
4.000000000000000000e+00,3.808198000000000416e-01,4.689808710384677469e-03
4.400000000000000355e+00,3.608752000000000071e-01,4.907136175000654903e-03
4.799999999999999822e+00,3.440996000000000055e-01,4.312335847310595424e-03
5.200000000000000178e+00,3.285861999999999949e-01,3.885314188067676405e-03
5.599999999999999645e+00,3.125138000000000083e-01,4.122535401909854444e-03
6.000000000000000000e+00,3.000459999999999239e-01,3.942722498477416529e-03
6.400000000000000355e+00,2.865313999999999917e-01,3.425738425507702644e-03
6.799999999999999822e+00,2.760892000000000346e-01,3.758190327804061034e-03
7.200000000000000178e+00,2.644938000000000011e-01,3.852056157430729447e-03
7.599999999999999645e+00,2.541273999999999478e-01,4.189799453434494940e-03
8.000000000000000000e+00,2.439441999999999722e-01,3.598556563401496614e-03
8.400000000000000355e+00,2.357304000000000066e-01,4.093702878812771964e-03
8.800000000000000711e+00,2.280036000000000007e-01,4.203052754843792163e-03
9.199999999999999289e+00,2.195098000000000327e-01,4.289636784157837071e-03
9.599999999999999645e+00,2.112109999999999821e-01,4.330033198487049338e-03
1.000000000000000000e+01,2.047168000000000043e-01,4.098293881604878758e-03
1.040000000000000036e+01,1.968306000000000222e-01,4.030671043387190969e-03
1.080000000000000071e+01,1.898446000000000022e-01,3.651399411184703091e-03
1.119999999999999929e+01,1.841969999999999996e-01,3.763986012195049205e-03
1.159999999999999964e+01,1.790296000000000110e-01,3.708726770739521547e-03
1.200000000000000000e+01,1.743056000000000050e-01,3.775873377114226034e-03
1.240000000000000036e+01,1.686411999999999911e-01,3.423682190274093297e-03
1.280000000000000071e+01,1.639468000000000036e-01,3.535022735429009435e-03
1.319999999999999929e+01,1.591277999999999859e-01,3.405626247843412165e-03
1.359999999999999964e+01,1.549948000000000159e-01,3.687783933475493551e-03
1.400000000000000000e+01,1.506833999999999674e-01,3.057343153785648839e-03
1.440000000000000036e+01,1.468299999999999883e-01,3.052427427474728276e-03
1.480000000000000071e+01,1.423571999999999893e-01,3.114518765395385240e-03
1.519999999999999929e+01,1.399102000000000123e-01,3.031059392357728782e-03
1.559999999999999964e+01,1.364019999999999955e-01,2.784974236864676267e-03
1.600000000000000000e+01,1.328889999999999794e-01,3.035649386869308363e-03
1.639999999999999858e+01,1.294806000000000012e-01,3.029318184014351528e-03
1.680000000000000071e+01,1.271981999999999835e-01,3.030962906404499092e-03
1.719999999999999929e+01,1.247647999999999813e-01,2.855351509009003245e-03
1.760000000000000142e+01,1.216631999999999991e-01,2.745522962934382645e-03
1.800000000000000000e+01,1.184479999999999977e-01,2.652181554871386668e-03
1.839999999999999858e+01,1.158561999999999925e-01,2.836043465816417454e-03
1.880000000000000071e+01,1.130020000000000052e-01,2.806100318947988420e-03
1.919999999999999929e+01,1.098668000000000006e-01,2.137941332216578005e-03
1.960000000000000142e+01,1.080481999999999970e-01,2.318192386321721310e-03
2.000000000000000000e+01,1.059070000000000011e-01,2.743992219376724037e-03
2.039999999999999858e+01,1.038300000000000056e-01,2.381401940034482984e-03
2.080000000000000071e+01,1.026508000000000143e-01,2.284766780220685075e-03
2.119999999999999929e+01,9.986499999999999544e-02,1.820397868599060373e-03
2.160000000000000142e+01,9.806360000000000077e-02,1.776456714924402056e-03
2.200000000000000000e+01,9.565419999999999479e-02,2.049787145047016028e-03
2.239999999999999858e+01,9.401379999999999459e-02,1.996881704057603280e-03
2.280000000000000071e+01,9.244040000000000590e-02,2.031276313060337898e-03
2.319999999999999929e+01,9.066399999999999459e-02,2.016564281147517363e-03
2.360000000000000142e+01,8.922460000000000113e-02,1.918073945394181299e-03
2.400000000000000000e+01,8.723400000000000598e-02,1.892342384453722746e-03
2.439999999999999858e+01,8.613099999999999923e-02,1.895074061877266829e-03
2.480000000000000071e+01,8.475899999999998713e-02,1.952427975624197818e-03
2.519999999999999929e+01,8.346199999999999453e-02,1.717988242101790158e-03
2.560000000000000142e+01,8.182599999999999596e-02,2.196410139295482036e-03
2.600000000000000000e+01,8.052919999999999523e-02,2.088152087372947222e-03
2.639999999999999858e+01,7.844740000000000046e-02,2.070684732159871946e-03
2.680000000000000071e+01,7.749920000000000420e-02,2.011259242365340521e-03
2.719999999999999929e+01,7.603959999999999886e-02,1.900697729782407702e-03
2.760000000000000142e+01,7.474479999999998625e-02,1.962540481111154853e-03
2.800000000000000000e+01,7.291400000000000658e-02,1.823172619364386892e-03
2.839999999999999858e+01,7.186479999999999257e-02,1.866173823629514901e-03
2.880000000000000071e+01,7.086679999999999369e-02,1.680567445834889404e-03
2.919999999999999929e+01,6.969519999999999882e-02,1.788511906586030429e-03
2.960000000000000142e+01,6.804200000000000526e-02,1.520330819262702676e-03
3.000000000000000000e+01,6.702739999999998699e-02,1.685285661245594212e-03
3.039999999999999858e+01,6.654899999999999705e-02,1.682176179833729142e-03
3.080000000000000071e+01,6.563559999999998840e-02,1.667698941655837300e-03
3.119999999999999929e+01,6.414440000000000419e-02,1.527457809564636542e-03
3.160000000000000142e+01,6.337020000000000153e-02,1.406857114279910911e-03
3.200000000000000000e+01,6.235759999999999220e-02,1.494810509730245271e-03
3.239999999999999858e+01,6.123800000000000077e-02,1.544132733931898472e-03
3.279999999999999716e+01,5.981659999999999755e-02,1.448470455342461966e-03
3.320000000000000284e+01,5.928560000000000774e-02,1.063171839356178870e-03
3.360000000000000142e+01,5.852680000000000382e-02,1.081148666927912293e-03
3.400000000000000000e+01,5.747599999999999237e-02,1.351171972770305900e-03
3.439999999999999858e+01,5.670180000000000359e-02,1.071001185806999805e-03
3.479999999999999716e+01,5.677559999999999552e-02,1.290832545297800190e-03
3.520000000000000284e+01,5.591739999999999211e-02,1.179529423117540912e-03
3.560000000000000142e+01,5.458879999999999288e-02,1.204359805041665824e-03
3.600000000000000000e+01,5.385539999999999772e-02,9.575046527302099155e-04
3.639999999999999858e+01,5.366420000000000912e-02,1.059951008301798867e-03
3.679999999999999716e+01,5.336860000000000215e-02,8.491914742859819161e-04
3.720000000000000284e+01,5.226019999999999971e-02,9.445716171895071362e-04
3.760000000000000142e+01,5.135440000000000144e-02,8.337393237697256643e-04
3.800000000000000000e+01,5.074199999999999544e-02,1.048725607582841378e-03
3.839999999999999858e+01,4.998319999999999846e-02,8.520092370391294618e-04
3.879999999999999716e+01,4.958460000000000645e-02,9.335512090935348247e-04
3.920000000000000284e+01,4.913180000000000325e-02,8.058903399346586255e-04
3.960000000000000142e+01,4.892139999999999683e-02,9.656938231137246389e-04
4.000000000000000000e+01,4.813900000000000123e-02,1.128194664054036700e-03
4.039999999999999858e+01,4.773659999999999709e-02,1.092065730622475417e-03
4.079999999999999716e+01,4.715799999999999159e-02,1.049267792319959203e-03
4.120000000000000284e+01,4.651040000000000035e-02,1.045310652389996008e-03
4.160000000000000142e+01,4.547839999999999522e-02,8.469521001804064964e-04
4.200000000000000000e+01,4.462220000000000075e-02,9.522544512891501813e-04
4.239999999999999858e+01,4.432099999999999929e-02,8.381604261715065165e-04
4.279999999999999716e+01,4.371760000000000229e-02,1.004660470009644587e-03
4.320000000000000284e+01,4.296060000000000156e-02,9.879748276145493453e-04
4.360000000000000142e+01,4.213680000000000203e-02,8.445122497631398113e-04
4.400000000000000000e+01,4.206919999999999410e-02,6.869085383076846320e-04
4.439999999999999858e+01,4.172239999999999976e-02,9.067478480812614242e-04
4.479999999999999716e+01,4.123620000000000063e-02,8.625821931850904045e-04
4.520000000000000284e+01,4.075720000000000037e-02,8.640534937143648985e-04
4.560000000000000142e+01,4.055340000000000333e-02,8.102069241866551030e-04
4.600000000000000000e+01,3.962740000000000012e-02,9.192515760117035565e-04
4.639999999999999858e+01,3.981980000000000242e-02,6.966175708378307416e-04
4.679999999999999716e+01,3.955659999999999732e-02,9.221235058277163629e-04
4.720000000000000284e+01,3.867779999999999829e-02,9.272621204384443603e-04
4.760000000000000142e+01,3.848619999999999819e-02,9.288454338586162170e-04
4.800000000000000000e+01,3.818520000000000247e-02,9.112023595228451508e-04
4.839999999999999858e+01,3.794960000000000694e-02,9.754759658751209397e-04
4.879999999999999716e+01,3.748179999999999568e-02,1.035398638206560390e-03
4.920000000000000284e+01,3.666479999999999739e-02,9.659094367486007566e-04
4.960000000000000142e+01,3.637239999999999918e-02,1.085141907770591739e-03
5.000000000000000000e+01,3.632300000000000112e-02,1.170754414896650651e-03
5.039999999999999858e+01,3.579940000000000205e-02,1.148741250238711912e-03
5.079999999999999716e+01,3.517759999999999637e-02,1.008202588768745273e-03
5.120000000000000284e+01,3.485599999999999810e-02,1.204419569751338966e-03
5.160000000000000142e+01,3.435400000000000259e-02,1.208970305673386309e-03
5.200000000000000000e+01,3.400140000000000107e-02,1.157985474865725565e-03
5.239999999999999858e+01,3.295700000000000018e-02,1.044540329522991194e-03
5.279999999999999716e+01,3.304739999999999761e-02,1.058233272960173565e-03
5.320000000000000284e+01,3.260319999999999885e-02,1.099983745334448364e-03
5.360000000000000142e+01,3.238839999999999775e-02,9.508508084867993643e-04
5.400000000000000000e+01,3.223080000000000389e-02,7.871977134113133196e-04
5.439999999999999858e+01,3.222380000000000383e-02,8.091223887645178749e-04
5.479999999999999716e+01,3.177519999999999650e-02,8.930860204929862893e-04
5.520000000000000284e+01,3.127359999999999862e-02,8.116239030486961832e-04
5.560000000000000142e+01,3.104399999999999868e-02,6.805153929192191056e-04
5.600000000000000000e+01,3.069039999999999963e-02,5.528626049933199746e-04
5.639999999999999858e+01,3.013379999999999878e-02,5.867325966741579642e-04
5.679999999999999716e+01,2.992840000000000084e-02,5.070256995458907560e-04
5.720000000000000284e+01,3.020220000000000196e-02,7.688379152981467081e-04
5.760000000000000142e+01,2.991639999999999924e-02,7.093266243417061878e-04
5.800000000000000000e+01,2.902180000000000384e-02,6.989747777995997851e-04
5.839999999999999858e+01,2.898739999999999650e-02,5.848943152399415464e-04
5.879999999999999716e+01,2.860580000000000414e-02,6.862263037803198679e-04
5.920000000000000284e+01,2.807680000000000245e-02,5.381992567813519883e-04
5.960000000000000142e+01,2.815099999999999894e-02,6.517311562293153036e-04
6.000000000000000000e+01,2.798740000000000255e-02,6.962551687420350010e-04
6.039999999999999858e+01,2.796720000000000456e-02,8.433622827705776308e-04
6.079999999999999716e+01,2.759239999999999957e-02,7.806763477908113457e-04
6.120000000000000284e+01,2.714659999999999990e-02,8.016306880353318409e-04
6.160000000000000142e+01,2.768599999999999881e-02,7.993522377525445668e-04
6.200000000000000000e+01,2.704240000000000116e-02,7.345373782184261464e-04
6.239999999999999858e+01,2.664080000000000267e-02,7.341103731728626774e-04
6.279999999999999716e+01,2.637499999999999914e-02,7.892583227309038886e-04
6.320000000000000284e+01,2.635760000000000186e-02,7.456386926655563874e-04
6.360000000000000142e+01,2.614600000000000257e-02,7.378680776398989895e-04
6.400000000000000000e+01,2.569239999999999718e-02,7.250611422493969836e-04
6.440000000000000568e+01,2.577120000000000105e-02,6.587294892442570196e-04
6.479999999999999716e+01,2.568900000000000003e-02,5.407538256915063153e-04
6.520000000000000284e+01,2.558739999999999973e-02,5.549968108016480267e-04
6.559999999999999432e+01,2.534099999999999547e-02,5.061050286254816172e-04
6.600000000000000000e+01,2.512440000000000159e-02,6.103075126524336704e-04
6.640000000000000568e+01,2.486879999999999993e-02,7.532227027911464652e-04
6.679999999999999716e+01,2.456559999999999994e-02,8.945912250855135150e-04
6.720000000000000284e+01,2.437559999999999727e-02,8.044194552595061026e-04
6.759999999999999432e+01,2.454980000000000356e-02,7.351230101146341350e-04
6.800000000000000000e+01,2.465919999999999918e-02,6.698824822310256270e-04
6.840000000000000568e+01,2.416959999999999942e-02,6.727747468506827585e-04
6.879999999999999716e+01,2.407260000000000302e-02,6.440540815801110716e-04
6.920000000000000284e+01,2.387680000000000011e-02,6.772908828561032078e-04
6.959999999999999432e+01,2.397239999999999788e-02,6.367466215065455473e-04
7.000000000000000000e+01,2.380200000000000024e-02,6.856422536571092933e-04
7.040000000000000568e+01,2.320620000000000321e-02,5.167741673110218172e-04
7.079999999999999716e+01,2.307359999999999967e-02,7.938187198598938704e-04
7.120000000000000284e+01,2.326680000000000068e-02,7.227411293125635301e-04
7.159999999999999432e+01,2.323100000000000165e-02,7.125549803348511747e-04
7.200000000000000000e+01,2.300340000000000024e-02,6.865509886381347552e-04
7.240000000000000568e+01,2.305439999999999573e-02,6.218268730120949262e-04
7.279999999999999716e+01,2.269039999999999946e-02,7.110378752218477708e-04
7.320000000000000284e+01,2.206460000000000019e-02,4.358931749867160036e-04
7.359999999999999432e+01,2.215079999999999827e-02,6.630191852427803597e-04
7.400000000000000000e+01,2.180900000000000200e-02,6.635169930001791078e-04
7.440000000000000568e+01,2.171639999999999682e-02,7.786576012600148486e-04
7.479999999999999716e+01,2.166059999999999860e-02,6.337604910374264626e-04
7.520000000000000284e+01,2.164819999999999939e-02,6.070061284698860917e-04
7.559999999999999432e+01,2.150420000000000109e-02,6.038447151379237876e-04
7.600000000000000000e+01,2.146079999999999516e-02,7.142555845073946452e-04
7.640000000000000568e+01,2.127079999999999943e-02,6.190616609030153263e-04
7.679999999999999716e+01,2.123599999999999793e-02,5.893857819798503346e-04
7.720000000000000284e+01,2.124780000000000071e-02,5.554811787990666201e-04
7.759999999999999432e+01,2.131959999999999758e-02,6.438240908819734768e-04
7.800000000000000000e+01,2.109039999999999873e-02,4.467099282532234678e-04
7.840000000000000568e+01,2.112260000000000179e-02,4.652584872949662833e-04
7.879999999999999716e+01,2.085700000000000054e-02,2.911145822524179700e-04
7.920000000000000284e+01,2.050339999999999802e-02,3.438075915392215334e-04
7.959999999999999432e+01,2.053719999999999851e-02,3.745188112765496366e-04
8.000000000000000000e+01,2.020519999999999955e-02,3.916098058016424365e-04
8.040000000000000568e+01,2.012239999999999862e-02,4.716766477153598374e-04
8.079999999999999716e+01,1.984440000000000162e-02,5.815758420017113836e-04
8.120000000000000284e+01,1.950719999999999885e-02,5.184460820567553686e-04
8.159999999999999432e+01,1.956500000000000253e-02,6.394410058793540026e-04
8.200000000000000000e+01,1.918059999999999904e-02,3.092899287076769773e-04
8.240000000000000568e+01,1.906479999999999980e-02,4.534213713534019350e-04
8.279999999999999716e+01,1.892940000000000247e-02,5.233618824484643096e-04
8.320000000000000284e+01,1.872040000000000162e-02,5.618028657812270104e-04
8.359999999999999432e+01,1.842780000000000112e-02,5.015682804962845985e-04
8.400000000000000000e+01,1.831599999999999895e-02,4.257965476609692416e-04
8.440000000000000568e+01,1.808420000000000166e-02,4.405685417730137270e-04
8.479999999999999716e+01,1.831239999999999951e-02,5.000896519625252015e-04
8.520000000000000284e+01,1.842219999999999969e-02,4.140714189605460656e-04
8.559999999999999432e+01,1.814520000000000022e-02,4.720561830968848164e-04
8.600000000000000000e+01,1.793220000000000230e-02,4.267363823252008919e-04
8.640000000000000568e+01,1.792119999999999824e-02,3.187661211609540491e-04
8.679999999999999716e+01,1.768020000000000008e-02,3.699134223031112431e-04
8.720000000000000284e+01,1.761060000000000056e-02,4.518837903709313378e-04
8.759999999999999432e+01,1.770599999999999952e-02,4.826831258703788712e-04
8.800000000000000000e+01,1.756459999999999966e-02,5.351794652263855119e-04
8.840000000000000568e+01,1.730239999999999903e-02,7.389664133098339206e-04
8.879999999999999716e+01,1.726820000000000438e-02,6.324425191272329411e-04
8.920000000000000284e+01,1.691880000000000120e-02,7.017822596788832927e-04
8.959999999999999432e+01,1.689739999999999992e-02,6.245360357897691232e-04
9.000000000000000000e+01,1.711580000000000046e-02,5.744776235851143135e-04
9.040000000000000568e+01,1.684859999999999830e-02,5.068247823459305634e-04
9.079999999999999716e+01,1.665000000000000160e-02,3.905594705035327400e-04
9.120000000000000284e+01,1.626060000000000005e-02,4.206150972088375478e-04
9.159999999999999432e+01,1.644280000000000047e-02,5.024033638422416076e-04
9.200000000000000000e+01,1.658760000000000095e-02,4.690137098209391721e-04
9.240000000000000568e+01,1.617579999999999713e-02,6.423992839348437222e-04
9.279999999999999716e+01,1.622320000000000012e-02,6.825410903381569274e-04
9.320000000000000284e+01,1.595759999999999887e-02,4.260616856747387066e-04
9.359999999999999432e+01,1.576239999999999933e-02,5.353328497299600234e-04
9.400000000000000000e+01,1.569040000000000018e-02,5.102533292395061097e-04
9.440000000000000568e+01,1.551220000000000029e-02,4.993831595078071896e-04
9.479999999999999716e+01,1.559759999999999966e-02,3.184222982141794332e-04
9.520000000000000284e+01,1.560140000000000138e-02,2.732918952329177953e-04
9.559999999999999432e+01,1.510720000000000118e-02,3.553472104857443919e-04
9.600000000000000000e+01,1.527260000000000076e-02,3.246509818250977895e-04
9.640000000000000568e+01,1.506979999999999952e-02,2.907485855511596586e-04
9.679999999999999716e+01,1.508260000000000156e-02,3.343790663304151644e-04
9.720000000000000284e+01,1.495879999999999953e-02,5.390348226228060041e-04
9.759999999999999432e+01,1.518159999999999996e-02,4.400607458067576990e-04
9.800000000000000000e+01,1.491260000000000155e-02,4.124670411075286969e-04
9.840000000000000568e+01,1.451379999999999858e-02,3.659020907292003921e-04
9.879999999999999716e+01,1.463719999999999952e-02,4.073663461799466767e-04
9.920000000000000284e+01,1.475460000000000139e-02,4.658087161056563910e-04
9.959999999999999432e+01,1.484519999999999937e-02,4.595950826542862812e-04
1.000000000000000000e+02,1.483359999999999887e-02,3.948908203541834643e-04
1.004000000000000057e+02,1.483259999999999787e-02,1.825003013696143133e-04
1.007999999999999972e+02,1.470000000000000126e-02,3.464097285008029730e-04
1.012000000000000028e+02,1.461220000000000054e-02,3.219014445447548282e-04
1.015999999999999943e+02,1.453059999999999942e-02,3.140118787562025155e-04
1.020000000000000000e+02,1.444600000000000051e-02,3.830005221928555110e-04
1.024000000000000057e+02,1.429039999999999824e-02,2.977436145411012738e-04
1.027999999999999972e+02,1.393240000000000103e-02,2.790939985022966932e-04
1.032000000000000028e+02,1.373539999999999831e-02,2.394469878699666938e-04
1.035999999999999943e+02,1.401540000000000077e-02,2.221809172723885966e-04
1.040000000000000000e+02,1.404179999999999838e-02,3.435861464029069958e-04
1.044000000000000057e+02,1.407639999999999933e-02,2.603062811382007434e-04
1.047999999999999972e+02,1.397180000000000123e-02,3.861971517243490836e-04
1.052000000000000028e+02,1.386180000000000224e-02,3.543240607127888455e-04
1.055999999999999943e+02,1.382940000000000037e-02,3.178988203815800496e-04
1.060000000000000000e+02,1.370520000000000072e-02,4.689916203942242029e-04
1.064000000000000057e+02,1.346100000000000074e-02,4.213621957413834921e-04
