timestep,H(t)_mean,H(t)_err
4.000000000000000222e-01,8.239014000000001170e-01,3.160913791927785288e-04
8.000000000000000444e-01,7.446842000000000183e-01,3.563629329770431572e-04
1.199999999999999956e+00,6.872800000000000020e-01,5.788235482424581701e-04
1.600000000000000089e+00,6.410788000000000597e-01,8.198111611828697194e-04
2.000000000000000000e+00,6.024163999999998520e-01,8.924514888776836127e-04
2.399999999999999911e+00,5.684221999999999886e-01,8.081289129835714192e-04
2.799999999999999822e+00,5.381586000000000425e-01,1.007362129524425401e-03
3.200000000000000178e+00,5.112503999999999937e-01,1.049446597021492025e-03
3.600000000000000089e+00,4.866762000000000588e-01,1.041898046835680169e-03
4.000000000000000000e+00,4.645991999999999900e-01,9.192574938503379409e-04
4.400000000000000355e+00,4.437923999999999758e-01,1.036094040133422834e-03
4.799999999999999822e+00,4.254592000000000374e-01,9.413529837420158081e-04
5.200000000000000178e+00,4.077791999999999528e-01,9.495147392221028448e-04
5.599999999999999645e+00,3.912723999999999647e-01,8.075710866542909309e-04
6.000000000000000000e+00,3.761592000000000269e-01,8.656148912767124915e-04
6.400000000000000355e+00,3.621648000000000089e-01,9.468409264496331634e-04
6.799999999999999822e+00,3.486479999999999579e-01,9.760994314105514002e-04
7.200000000000000178e+00,3.359569999999999501e-01,8.172153327000160165e-04
7.599999999999999645e+00,3.243502000000000329e-01,9.102291140147098121e-04
8.000000000000000000e+00,3.131805999999999757e-01,8.922317860287239371e-04
8.400000000000000355e+00,3.027487999999999846e-01,8.814841121653866577e-04
8.800000000000000711e+00,2.929216000000000042e-01,8.493031025493780976e-04
9.199999999999999289e+00,2.835242000000000040e-01,8.715178368800001246e-04
9.599999999999999645e+00,2.746475999999999917e-01,7.981338609531559054e-04
1.000000000000000000e+01,2.660877999999999854e-01,8.042533431699227077e-04
1.040000000000000036e+01,2.580546000000000229e-01,7.701337935709634932e-04
1.080000000000000071e+01,2.503372000000000375e-01,6.090385373685331402e-04
1.119999999999999929e+01,2.431338000000000110e-01,7.362256719240402444e-04
1.159999999999999964e+01,2.363068000000000113e-01,6.655054770623563534e-04
1.200000000000000000e+01,2.295075999999999783e-01,7.516186932215016990e-04
1.240000000000000036e+01,2.231278000000000150e-01,8.809414509489291254e-04
1.280000000000000071e+01,2.171407999999999949e-01,7.227236954742764612e-04
1.319999999999999929e+01,2.114003999999999883e-01,5.938168572885059665e-04
1.359999999999999964e+01,2.059060000000000057e-01,6.000764118010295340e-04
1.400000000000000000e+01,2.007882000000000000e-01,5.173352298075248497e-04
1.440000000000000036e+01,1.956672000000000133e-01,5.261248330957235845e-04
1.480000000000000071e+01,1.907681999999999989e-01,5.173223753134956323e-04
1.519999999999999929e+01,1.859913999999999734e-01,5.005300790162345347e-04
1.559999999999999964e+01,1.814655999999999769e-01,4.528802932343149366e-04
1.600000000000000000e+01,1.771771999999999792e-01,3.841153993268202858e-04
1.639999999999999858e+01,1.734142000000000183e-01,4.646464677580179029e-04
1.680000000000000071e+01,1.692157999999999995e-01,3.702103996378244550e-04
1.719999999999999929e+01,1.653629999999999822e-01,3.961411364652779620e-04
1.760000000000000142e+01,1.614146000000000192e-01,3.700792617805003719e-04
1.800000000000000000e+01,1.576423999999999881e-01,4.225676987182042750e-04
1.839999999999999858e+01,1.543256000000000072e-01,4.257159381559489893e-04
1.880000000000000071e+01,1.510695999999999983e-01,4.887730148033946932e-04
1.919999999999999929e+01,1.477832000000000312e-01,4.180506428651913618e-04
1.960000000000000142e+01,1.446618000000000070e-01,2.426267503800854514e-04
2.000000000000000000e+01,1.415011999999999937e-01,3.859205099499134510e-04
2.039999999999999858e+01,1.387858000000000147e-01,3.884481175137791489e-04
2.080000000000000071e+01,1.359735999999999723e-01,4.555046212718404184e-04
2.119999999999999929e+01,1.333432000000000228e-01,4.582962360744405588e-04
2.160000000000000142e+01,1.306314000000000086e-01,4.489446068280582920e-04
2.200000000000000000e+01,1.280766000000000127e-01,4.872339889621819515e-04
2.239999999999999858e+01,1.258395999999999959e-01,3.808421720345561939e-04
2.280000000000000071e+01,1.232831999999999956e-01,3.925452075876103533e-04
2.319999999999999929e+01,1.209370000000000028e-01,4.199623792674761101e-04
2.360000000000000142e+01,1.187312000000000090e-01,4.931499163540423603e-04
2.400000000000000000e+01,1.163880000000000053e-01,4.262561436507404655e-04
2.439999999999999858e+01,1.142274000000000067e-01,3.781795340840116886e-04
2.480000000000000071e+01,1.121621999999999897e-01,3.412489413903000194e-04
2.519999999999999929e+01,1.101045999999999969e-01,3.182493676348776136e-04
2.560000000000000142e+01,1.082713999999999899e-01,3.424489158984154579e-04
2.600000000000000000e+01,1.064801999999999971e-01,4.119619399896074408e-04
2.639999999999999858e+01,1.045701999999999882e-01,3.876631785455002211e-04
2.680000000000000071e+01,1.026859999999999856e-01,3.980032663182571243e-04
2.719999999999999929e+01,1.009776000000000007e-01,3.646112450268075827e-04
2.760000000000000142e+01,9.930140000000001188e-02,4.409745570891826288e-04
2.800000000000000000e+01,9.760699999999999932e-02,3.206393612768084953e-04
2.839999999999999858e+01,9.592960000000000376e-02,3.364919909893848054e-04
2.880000000000000071e+01,9.429780000000000106e-02,3.291832924071333736e-04
2.919999999999999929e+01,9.271240000000000037e-02,3.194586984259474506e-04
2.960000000000000142e+01,9.123379999999998990e-02,2.274390907473913066e-04
3.000000000000000000e+01,8.996200000000001418e-02,2.832119347767673946e-04
3.039999999999999858e+01,8.841879999999999185e-02,3.535817302972530654e-04
3.080000000000000071e+01,8.693219999999998726e-02,3.900858110723846861e-04
3.119999999999999929e+01,8.567560000000000453e-02,3.811450642471972405e-04
3.160000000000000142e+01,8.444300000000000417e-02,3.655285214589963183e-04
3.200000000000000000e+01,8.308160000000000545e-02,3.634539310559185246e-04
3.239999999999999858e+01,8.193199999999999095e-02,4.456751058787112663e-04
3.279999999999999716e+01,8.075839999999999408e-02,3.747989594435922542e-04
3.320000000000000284e+01,7.950100000000000222e-02,3.661342649903183725e-04
3.360000000000000142e+01,7.846580000000000221e-02,3.735705288161787156e-04
3.400000000000000000e+01,7.743259999999999033e-02,3.027455367135891426e-04
3.439999999999999858e+01,7.630600000000001271e-02,3.315742752385952147e-04
3.479999999999999716e+01,7.524400000000000532e-02,3.282133452497012745e-04
3.520000000000000284e+01,7.414760000000000795e-02,3.386837167624094039e-04
3.560000000000000142e+01,7.310439999999998606e-02,3.100731526591741041e-04
3.600000000000000000e+01,7.205599999999999505e-02,3.075301611224500495e-04
3.639999999999999858e+01,7.115840000000001053e-02,3.099794509318325587e-04
3.679999999999999716e+01,7.017700000000000327e-02,2.737599313266999971e-04
3.720000000000000284e+01,6.907800000000000051e-02,3.698672734914519394e-04
3.760000000000000142e+01,6.811819999999998987e-02,3.783332393538786881e-04
3.800000000000000000e+01,6.735480000000000633e-02,3.476344919595872026e-04
3.839999999999999858e+01,6.641060000000001406e-02,2.941478539782338051e-04
3.879999999999999716e+01,6.551199999999998691e-02,2.845215281837204838e-04
3.920000000000000284e+01,6.465440000000000076e-02,3.719926881001832495e-04
3.960000000000000142e+01,6.384579999999999422e-02,3.890847465527294026e-04
4.000000000000000000e+01,6.311120000000000618e-02,3.644257674753528364e-04
4.039999999999999858e+01,6.232519999999999033e-02,3.710786170072324160e-04
4.079999999999999716e+01,6.151260000000000755e-02,3.814524347805379675e-04
4.120000000000000284e+01,6.086499999999998856e-02,3.135287865571519139e-04
4.160000000000000142e+01,6.000039999999999540e-02,3.869925839082710294e-04
4.200000000000000000e+01,5.925979999999999442e-02,3.446520564279286609e-04
4.239999999999999858e+01,5.856740000000000557e-02,2.584841581219244765e-04
4.279999999999999716e+01,5.775339999999999641e-02,3.025991738257054783e-04
4.320000000000000284e+01,5.708939999999999848e-02,3.139301833210684741e-04
4.360000000000000142e+01,5.636460000000000081e-02,2.942573023732794352e-04
4.400000000000000000e+01,5.573679999999999607e-02,3.237459497816149671e-04
4.439999999999999858e+01,5.513019999999999726e-02,4.034408754700005576e-04
4.479999999999999716e+01,5.458000000000000351e-02,4.228048012972416528e-04
4.520000000000000284e+01,5.404919999999999863e-02,3.365895720309823548e-04
4.560000000000000142e+01,5.340260000000000146e-02,3.201533382615274538e-04
4.600000000000000000e+01,5.282179999999999515e-02,3.295843442883770579e-04
4.639999999999999858e+01,5.225220000000000559e-02,3.357663473309974969e-04
4.679999999999999716e+01,5.163659999999999778e-02,3.049668178671250383e-04
4.720000000000000284e+01,5.108440000000000897e-02,3.282764993111752638e-04
4.760000000000000142e+01,5.047419999999998991e-02,3.271604193664016361e-04
4.800000000000000000e+01,4.997079999999999578e-02,3.323464156569164033e-04
4.839999999999999858e+01,4.945460000000000134e-02,3.060268942429737651e-04
4.879999999999999716e+01,4.892900000000000027e-02,2.891714024588187262e-04
4.920000000000000284e+01,4.837560000000000471e-02,2.471061715133791577e-04
4.960000000000000142e+01,4.772239999999999815e-02,2.744337078421680513e-04
5.000000000000000000e+01,4.737159999999999982e-02,3.116916104100336707e-04
5.039999999999999858e+01,4.683659999999999213e-02,3.003841873334881342e-04
5.079999999999999716e+01,4.632479999999999931e-02,2.735824190257852857e-04
5.120000000000000284e+01,4.593619999999999648e-02,2.820126592903237739e-04
5.160000000000000142e+01,4.548359999999999903e-02,2.300796818495713018e-04
5.200000000000000000e+01,4.493599999999999678e-02,2.880055555019728490e-04
5.239999999999999858e+01,4.442420000000000396e-02,3.097036325263231881e-04
5.279999999999999716e+01,4.397580000000000239e-02,3.202014053685583745e-04
5.320000000000000284e+01,4.357119999999999743e-02,2.630702187629757388e-04
5.360000000000000142e+01,4.316419999999999979e-02,2.553128277231673485e-04
5.400000000000000000e+01,4.269180000000000197e-02,2.155454476438785729e-04
5.439999999999999858e+01,4.230099999999999832e-02,2.692188700667169665e-04
5.479999999999999716e+01,4.194040000000000268e-02,2.433887014633177241e-04
5.520000000000000284e+01,4.150520000000000598e-02,2.267779530730446665e-04
5.560000000000000142e+01,4.121760000000000701e-02,2.024209969346070005e-04
5.600000000000000000e+01,4.070379999999999832e-02,1.773706289102007906e-04
5.639999999999999858e+01,4.034300000000000386e-02,1.712489416025686593e-04
5.679999999999999716e+01,4.000340000000000146e-02,1.285214379004529167e-04
5.720000000000000284e+01,3.963420000000000137e-02,1.433019190380925383e-04
5.760000000000000142e+01,3.921080000000000398e-02,1.890606780903950144e-04
5.800000000000000000e+01,3.883339999999999709e-02,2.381406307205894649e-04
5.839999999999999858e+01,3.845079999999999332e-02,1.555263321756158047e-04
5.879999999999999716e+01,3.808219999999999661e-02,1.968673157230518801e-04
5.920000000000000284e+01,3.788899999999999213e-02,2.169211838433490649e-04
5.960000000000000142e+01,3.756259999999999460e-02,1.640806509007078590e-04
6.000000000000000000e+01,3.711140000000000272e-02,1.715860134160114862e-04
6.039999999999999858e+01,3.680520000000000319e-02,1.602190375704455800e-04
6.079999999999999716e+01,3.635039999999999799e-02,1.937476709537435738e-04
6.120000000000000284e+01,3.605039999999999634e-02,1.909252733401210647e-04
6.160000000000000142e+01,3.574999999999999706e-02,1.570996499041288125e-04
6.200000000000000000e+01,3.543260000000000159e-02,1.481481015740663426e-04
6.239999999999999858e+01,3.520459999999999562e-02,1.612295258319640010e-04
6.279999999999999716e+01,3.487339999999999884e-02,1.949560463283970732e-04
6.320000000000000284e+01,3.461560000000000331e-02,1.657276681788523432e-04
6.360000000000000142e+01,3.431299999999999628e-02,1.450103444585932634e-04
6.400000000000000000e+01,3.394060000000000132e-02,1.622062267608736673e-04
6.440000000000000568e+01,3.360960000000000336e-02,1.722958502111995014e-04
6.479999999999999716e+01,3.338259999999999839e-02,1.382311831679096305e-04
6.520000000000000284e+01,3.313960000000000516e-02,1.377550725018866133e-04
6.559999999999999432e+01,3.288039999999999713e-02,1.298632357520793979e-04
6.600000000000000000e+01,3.255760000000000598e-02,1.565706230427661152e-04
6.640000000000000568e+01,3.239640000000000575e-02,1.511650091787128099e-04
6.679999999999999716e+01,3.205080000000000429e-02,1.055525461559319439e-04
6.720000000000000284e+01,3.186660000000000187e-02,1.091245160355818947e-04
6.759999999999999432e+01,3.162459999999999577e-02,8.506797282173776122e-05
6.800000000000000000e+01,3.128800000000000331e-02,8.551023330572795364e-05
6.840000000000000568e+01,3.102819999999999884e-02,9.413044140977949118e-05
6.879999999999999716e+01,3.081599999999999964e-02,9.558922533423938183e-05
6.920000000000000284e+01,3.053620000000000292e-02,1.148901214204250986e-04
6.959999999999999432e+01,3.033720000000000167e-02,9.990565549557246685e-05
7.000000000000000000e+01,3.014640000000000028e-02,1.169498182982767220e-04
7.040000000000000568e+01,2.984139999999999709e-02,1.288579062378398328e-04
7.079999999999999716e+01,2.960619999999999918e-02,1.195643759654185697e-04
7.120000000000000284e+01,2.936860000000000165e-02,1.306623893857752547e-04
7.159999999999999432e+01,2.909619999999999915e-02,1.102607817857283222e-04
7.200000000000000000e+01,2.894379999999999870e-02,1.352828148731390686e-04
7.240000000000000568e+01,2.870660000000000572e-02,1.923953221884568934e-04
7.279999999999999716e+01,2.856739999999999974e-02,1.855770998803462919e-04
7.320000000000000284e+01,2.834640000000000076e-02,2.191815685681623737e-04
7.359999999999999432e+01,2.814919999999999575e-02,2.230204923319830323e-04
7.400000000000000000e+01,2.803699999999999942e-02,1.919416578025729889e-04
7.440000000000000568e+01,2.772799999999999571e-02,1.743969609826960900e-04
7.479999999999999716e+01,2.756259999999999960e-02,1.902326470404067723e-04
7.520000000000000284e+01,2.729219999999999910e-02,1.824210514167701679e-04
7.559999999999999432e+01,2.706099999999999478e-02,1.724563712943073693e-04
7.600000000000000000e+01,2.691579999999999667e-02,1.170296543616189069e-04
7.640000000000000568e+01,2.662060000000000121e-02,1.177198369010083896e-04
7.679999999999999716e+01,2.647139999999999910e-02,9.204596677747464868e-05
7.720000000000000284e+01,2.631640000000000021e-02,9.809108012454554129e-05
7.759999999999999432e+01,2.618240000000000151e-02,1.017912569919441251e-04
7.800000000000000000e+01,2.597519999999999690e-02,1.181805398532259892e-04
7.840000000000000568e+01,2.579340000000000105e-02,1.110997749772698858e-04
7.879999999999999716e+01,2.559460000000000207e-02,6.678442932300889575e-05
7.920000000000000284e+01,2.540519999999999931e-02,8.889904386437498605e-05
7.959999999999999432e+01,2.521680000000000102e-02,1.158341055130140593e-04
8.000000000000000000e+01,2.509179999999999744e-02,1.047102669273649418e-04
8.040000000000000568e+01,2.490959999999999702e-02,1.214107079297373649e-04
8.079999999999999716e+01,2.468580000000000080e-02,8.270030229690829445e-05
8.120000000000000284e+01,2.450220000000000176e-02,1.153561441796666033e-04
8.159999999999999432e+01,2.441800000000000220e-02,8.414392432017904174e-05
8.200000000000000000e+01,2.425479999999999997e-02,8.395796567330590947e-05
8.240000000000000568e+01,2.405460000000000237e-02,1.039993269208988721e-04
8.279999999999999716e+01,2.388099999999999945e-02,1.088544900314175688e-04
8.320000000000000284e+01,2.369519999999999960e-02,8.867152868875082395e-05
8.359999999999999432e+01,2.348040000000000196e-02,1.414067183693898063e-04
8.400000000000000000e+01,2.337779999999999719e-02,1.281223633875053800e-04
8.440000000000000568e+01,2.321680000000000271e-02,1.382755943758695540e-04
8.479999999999999716e+01,2.303060000000000176e-02,1.182440696187335227e-04
8.520000000000000284e+01,2.292699999999999946e-02,1.349255350183943200e-04
8.559999999999999432e+01,2.280120000000000063e-02,1.297722620593478042e-04
8.600000000000000000e+01,2.255139999999999922e-02,1.383667590138615918e-04
8.640000000000000568e+01,2.240239999999999940e-02,1.377833807104471818e-04
8.679999999999999716e+01,2.228139999999999982e-02,1.398544243132833411e-04
8.720000000000000284e+01,2.215040000000000064e-02,1.416314230670579486e-04
8.759999999999999432e+01,2.206000000000000322e-02,1.646484132932958403e-04
8.800000000000000000e+01,2.186819999999999736e-02,1.614179048309076720e-04
8.840000000000000568e+01,2.171740000000000476e-02,1.807452903950751790e-04
8.879999999999999716e+01,2.158440000000000011e-02,1.404277750304402592e-04
8.920000000000000284e+01,2.147920000000000038e-02,1.628936462849299785e-04
8.959999999999999432e+01,2.140180000000000207e-02,1.643756064627593222e-04
9.000000000000000000e+01,2.124660000000000090e-02,1.491695679419901166e-04
9.040000000000000568e+01,2.113639999999999963e-02,1.182694381486612756e-04
9.079999999999999716e+01,2.096560000000000090e-02,1.160920324570121611e-04
9.120000000000000284e+01,2.082200000000000023e-02,1.249175728230420891e-04
9.159999999999999432e+01,2.067619999999999875e-02,1.036664844585751373e-04
9.200000000000000000e+01,2.059479999999999991e-02,9.673644607902468775e-05
9.240000000000000568e+01,2.048620000000000302e-02,1.013520596732004508e-04
9.279999999999999716e+01,2.036460000000000006e-02,1.386555444257460824e-04
9.320000000000000284e+01,2.017659999999999940e-02,1.122927424190892743e-04
9.359999999999999432e+01,2.008539999999999978e-02,9.873277064885822103e-05
9.400000000000000000e+01,2.004900000000000085e-02,9.850685255351545060e-05
9.440000000000000568e+01,1.991280000000000133e-02,1.081362104015116119e-04
9.479999999999999716e+01,1.978440000000000060e-02,1.079998148146559130e-04
9.520000000000000284e+01,1.964959999999999971e-02,1.008248977187679299e-04
9.559999999999999432e+01,1.946640000000000176e-02,1.046692887145025247e-04
9.600000000000000000e+01,1.940659999999999955e-02,1.008873629351070419e-04
9.640000000000000568e+01,1.924139999999999878e-02,9.361175139906361136e-05
9.679999999999999716e+01,1.910219999999999974e-02,8.948765277958745665e-05
9.720000000000000284e+01,1.902999999999999831e-02,1.084333896915520954e-04
9.759999999999999432e+01,1.889079999999999926e-02,9.985709789494143728e-05
9.800000000000000000e+01,1.878379999999999633e-02,7.118384648219019538e-05
9.840000000000000568e+01,1.870080000000000006e-02,9.800581615394086542e-05
9.879999999999999716e+01,1.860080000000000067e-02,1.193756256528104043e-04
9.920000000000000284e+01,1.849279999999999674e-02,1.120059819831063162e-04
9.959999999999999432e+01,1.831879999999999967e-02,1.289896895104409658e-04
1.000000000000000000e+02,1.818780000000000396e-02,1.120644457444017737e-04
1.004000000000000057e+02,1.813700000000000381e-02,1.237784310774697608e-04
1.007999999999999972e+02,1.808480000000000157e-02,1.018653032194965775e-04
1.012000000000000028e+02,1.798380000000000117e-02,8.305383796068656311e-05
1.015999999999999943e+02,1.788540000000000268e-02,1.170814246582268901e-04
1.020000000000000000e+02,1.787100000000000494e-02,1.141389504069493995e-04
1.024000000000000057e+02,1.779000000000000026e-02,1.386834525096631091e-04
1.027999999999999972e+02,1.761300000000000018e-02,1.159573197344612662e-04
1.032000000000000028e+02,1.755939999999999931e-02,7.433949152368504233e-05
1.035999999999999943e+02,1.750800000000000273e-02,9.505419506786633469e-05
1.040000000000000000e+02,1.743239999999999720e-02,1.081298293719175867e-04
1.044000000000000057e+02,1.726119999999999738e-02,1.248316466285692640e-04
1.047999999999999972e+02,1.719920000000000476e-02,1.170475971560287195e-04
1.052000000000000028e+02,1.705339999999999981e-02,1.002375179261735160e-04
1.055999999999999943e+02,1.696779999999999816e-02,1.216767849673884040e-04
1.060000000000000000e+02,1.685439999999999855e-02,1.271729530993128191e-04
1.064000000000000057e+02,1.674879999999999772e-02,1.089510899440661459e-04
