timestep,H(t)_mean,H(t)_err
4.000000000000000222e-01,7.714184000000000596e-01,3.766745234283832081e-03
8.000000000000000444e-01,6.457539999999999392e-01,7.301542939680627856e-03
1.199999999999999956e+00,5.704447999999999741e-01,5.538907991653220508e-03
1.600000000000000089e+00,5.264168000000000180e-01,4.553560413566510798e-03
2.000000000000000000e+00,4.747323999999999988e-01,6.075972165834859530e-03
2.399999999999999911e+00,4.344582000000000166e-01,7.976694117239299317e-03
2.799999999999999822e+00,4.004182000000000019e-01,6.956364505975805995e-03
3.200000000000000178e+00,3.785383999999999971e-01,9.897618373123908894e-03
3.600000000000000089e+00,3.550563999999999942e-01,4.465552167425663847e-03
4.000000000000000000e+00,3.321643999999999708e-01,4.711432898811144208e-03
4.400000000000000355e+00,3.129431999999999769e-01,9.556291854061384075e-04
4.799999999999999822e+00,2.925722000000000045e-01,3.270714087168114827e-03
5.200000000000000178e+00,2.813509999999999622e-01,3.659229700360444072e-03
5.599999999999999645e+00,2.706169999999999964e-01,3.780498287263197362e-03
6.000000000000000000e+00,2.603472000000000008e-01,3.781890260174137867e-03
6.400000000000000355e+00,2.467478000000000171e-01,2.373860029572086739e-03
6.799999999999999822e+00,2.346271999999999802e-01,1.872866103062363272e-03
7.200000000000000178e+00,2.243364000000000191e-01,2.782818797550424411e-03
7.599999999999999645e+00,2.108793999999999946e-01,3.928984456573988635e-03
8.000000000000000000e+00,2.032965999999999940e-01,4.125083157949665374e-03
8.400000000000000355e+00,1.982214000000000198e-01,2.030713805537355966e-03
8.800000000000000711e+00,1.968648000000000065e-01,1.912939633130122333e-03
9.199999999999999289e+00,1.875724000000000002e-01,2.382097995465344824e-03
9.599999999999999645e+00,1.760998000000000008e-01,3.226109412279752880e-03
1.000000000000000000e+01,1.661085999999999951e-01,3.273461770053226125e-03
1.040000000000000036e+01,1.605038000000000020e-01,4.285942106468540631e-03
1.080000000000000071e+01,1.575130000000000141e-01,3.708232570915689832e-03
1.119999999999999929e+01,1.531492000000000131e-01,2.895896724677866126e-03
1.159999999999999964e+01,1.503684000000000132e-01,3.387906338728980185e-03
1.200000000000000000e+01,1.474204000000000070e-01,5.169786219951457221e-03
1.240000000000000036e+01,1.484176000000000106e-01,4.482427206324717493e-03
1.280000000000000071e+01,1.406200000000000228e-01,5.417912596194219416e-03
1.319999999999999929e+01,1.390735999999999917e-01,7.453136377391736747e-03
1.359999999999999964e+01,1.346740000000000159e-01,5.247862031341906340e-03
1.400000000000000000e+01,1.314837999999999840e-01,4.304481692375980960e-03
1.440000000000000036e+01,1.296849999999999947e-01,3.169485478748873541e-03
1.480000000000000071e+01,1.258313999999999822e-01,3.424471311020137708e-03
1.519999999999999929e+01,1.220299999999999996e-01,2.683042657133873424e-03
1.559999999999999964e+01,1.149895999999999974e-01,3.544579038475512665e-03
1.600000000000000000e+01,1.103742000000000056e-01,3.993895634590367144e-03
1.639999999999999858e+01,1.091744000000000048e-01,3.622729255685551604e-03
1.680000000000000071e+01,1.027098000000000039e-01,4.091498177929448789e-03
1.719999999999999929e+01,9.747880000000000433e-02,4.207816172315514795e-03
1.760000000000000142e+01,9.826459999999999362e-02,4.692756722865569670e-03
1.800000000000000000e+01,9.537120000000000319e-02,2.740848142455178885e-03
1.839999999999999858e+01,9.509259999999999935e-02,3.363090343716625043e-03
1.880000000000000071e+01,9.369500000000000051e-02,2.773103676388607303e-03
1.919999999999999929e+01,9.566620000000000679e-02,1.047538705728813697e-03
1.960000000000000142e+01,8.808240000000000514e-02,1.034795902581760229e-03
2.000000000000000000e+01,8.705340000000000300e-02,2.203318374634043088e-03
2.039999999999999858e+01,8.417099999999999582e-02,1.952061858650999421e-03
2.080000000000000071e+01,8.111060000000000492e-02,1.022449490194993031e-03
2.119999999999999929e+01,7.949039999999998884e-02,2.132236539411139480e-03
2.160000000000000142e+01,7.814939999999999387e-02,1.755216755845272203e-03
2.200000000000000000e+01,7.732999999999999596e-02,2.540802845558858599e-03
2.239999999999999858e+01,7.912299999999999889e-02,2.835975035151049300e-03
2.280000000000000071e+01,7.897179999999999478e-02,2.009728822503175066e-03
2.319999999999999929e+01,7.609699999999999798e-02,4.076610847260258956e-03
2.360000000000000142e+01,6.932619999999999061e-02,3.813243545854369098e-03
2.400000000000000000e+01,6.998139999999999916e-02,2.585651496238423625e-03
2.439999999999999858e+01,6.846080000000000221e-02,3.483776117950174427e-03
2.480000000000000071e+01,6.657120000000001092e-02,4.487155383982150379e-03
2.519999999999999929e+01,6.988400000000000167e-02,3.592519909478581169e-03
2.560000000000000142e+01,6.721140000000000447e-02,2.496596855721805279e-03
2.600000000000000000e+01,6.645539999999999781e-02,3.475381858156020246e-03
2.639999999999999858e+01,6.656819999999999404e-02,9.127472486948394557e-04
2.680000000000000071e+01,6.729040000000000021e-02,1.444000574792129012e-03
2.719999999999999929e+01,6.268119999999999248e-02,1.769207319677373403e-03
2.760000000000000142e+01,6.255360000000000087e-02,1.420330581238044270e-03
2.800000000000000000e+01,5.838559999999999583e-02,1.109349746473130413e-03
2.839999999999999858e+01,5.884679999999999772e-02,1.378454257492790856e-03
2.880000000000000071e+01,5.566919999999999508e-02,1.242099891313093842e-03
2.919999999999999929e+01,5.589339999999999586e-02,2.458310610968433840e-03
2.960000000000000142e+01,5.603719999999999535e-02,2.538317285132022164e-03
3.000000000000000000e+01,5.597100000000000686e-02,2.673994315625969655e-03
3.039999999999999858e+01,5.507259999999999239e-02,2.702831415386464965e-03
3.080000000000000071e+01,5.122019999999999351e-02,2.796994233100954901e-03
3.119999999999999929e+01,5.185820000000000013e-02,3.010635520949023723e-03
3.160000000000000142e+01,5.039739999999999498e-02,1.522071700019417490e-03
3.200000000000000000e+01,5.236539999999999251e-02,2.329759785900683330e-03
3.239999999999999858e+01,4.989940000000000347e-02,3.192207458797124715e-03
3.279999999999999716e+01,4.743560000000000137e-02,2.805033201229532348e-03
3.320000000000000284e+01,4.977779999999999705e-02,2.999144034553859368e-03
3.360000000000000142e+01,4.862740000000000118e-02,1.519853729804286277e-03
3.400000000000000000e+01,4.867080000000000017e-02,2.321915381748439634e-03
3.439999999999999858e+01,4.659679999999999378e-02,1.724033276941022014e-03
3.479999999999999716e+01,4.631619999999999487e-02,2.140546061172241867e-03
3.520000000000000284e+01,4.553859999999999852e-02,1.842324227708032553e-03
3.560000000000000142e+01,4.203379999999999617e-02,1.297791254401107564e-03
3.600000000000000000e+01,4.185139999999999694e-02,3.334914691562585430e-04
3.639999999999999858e+01,4.365999999999999742e-02,2.018052922992853802e-03
3.679999999999999716e+01,4.274279999999999746e-02,2.358810471402906107e-03
3.720000000000000284e+01,4.168439999999999646e-02,1.563850971160615777e-03
3.760000000000000142e+01,4.151519999999999516e-02,8.649835489765103505e-04
3.800000000000000000e+01,4.111820000000000752e-02,2.089334425122029142e-03
3.839999999999999858e+01,3.972219999999999918e-02,1.745550526338324497e-03
3.879999999999999716e+01,3.798239999999999950e-02,1.799603334071149530e-03
3.920000000000000284e+01,3.871240000000000098e-02,1.090468413114289992e-03
3.960000000000000142e+01,3.491980000000000084e-02,1.765459498261005193e-03
4.000000000000000000e+01,3.503979999999999595e-02,1.465431895381017488e-03
4.039999999999999858e+01,3.533080000000000248e-02,1.799336583299522953e-03
4.079999999999999716e+01,3.522039999999999893e-02,2.081740944498138013e-03
4.120000000000000284e+01,3.555540000000000089e-02,1.551435612585968377e-03
4.160000000000000142e+01,3.553640000000000271e-02,1.540809741661832181e-03
4.200000000000000000e+01,3.339899999999999813e-02,1.479286145409332591e-03
4.239999999999999858e+01,3.375399999999999234e-02,1.180807223893892005e-03
4.279999999999999716e+01,3.497760000000000452e-02,1.482351597968578757e-03
4.320000000000000284e+01,3.535439999999999416e-02,1.938768722669106416e-03
4.360000000000000142e+01,3.617980000000000501e-02,2.290215871921247402e-03
4.400000000000000000e+01,3.336640000000000439e-02,1.958626345171534354e-03
4.439999999999999858e+01,3.339920000000000389e-02,2.066273926661225165e-03
4.479999999999999716e+01,3.264179999999999859e-02,1.717534145220990776e-03
4.520000000000000284e+01,3.310719999999999635e-02,2.113971012100213272e-03
4.560000000000000142e+01,3.405760000000000037e-02,1.937594451891313163e-03
4.600000000000000000e+01,3.289559999999999707e-02,1.926472854727001235e-03
4.639999999999999858e+01,3.189480000000000093e-02,1.912116168019087738e-03
4.679999999999999716e+01,3.274239999999999789e-02,8.467517109519180759e-04
4.720000000000000284e+01,3.260880000000000029e-02,1.961418909871116313e-03
4.760000000000000142e+01,3.093140000000000472e-02,1.479912652827861975e-03
4.800000000000000000e+01,3.093620000000000397e-02,2.149926263851855649e-03
4.839999999999999858e+01,3.003460000000000157e-02,1.547725964116387215e-03
4.879999999999999716e+01,3.033660000000000176e-02,2.115337741354793213e-03
4.920000000000000284e+01,2.902539999999999981e-02,1.707245137641340196e-03
4.960000000000000142e+01,2.830819999999999864e-02,1.659031928565571487e-03
5.000000000000000000e+01,2.887620000000000117e-02,1.738424614413866705e-03
5.039999999999999858e+01,2.823600000000000068e-02,1.684886465017747638e-03
5.079999999999999716e+01,2.890380000000000033e-02,1.513717523185881698e-03
5.120000000000000284e+01,2.849539999999999712e-02,9.414106224172315253e-04
5.160000000000000142e+01,2.929700000000000013e-02,1.546941369283270657e-03
5.200000000000000000e+01,2.904179999999999956e-02,1.759291715435504526e-03
5.239999999999999858e+01,2.753740000000000007e-02,1.273132695362113112e-03
5.279999999999999716e+01,2.695099999999999579e-02,9.051895934001895913e-04
5.320000000000000284e+01,2.566539999999999794e-02,1.726095959093815841e-03
5.360000000000000142e+01,2.651780000000000109e-02,1.122266430042349406e-03
5.400000000000000000e+01,2.639520000000000061e-02,1.623715135114531293e-03
5.439999999999999858e+01,2.603180000000000424e-02,7.558643661398520243e-04
5.479999999999999716e+01,2.382559999999999886e-02,1.830426005060024029e-03
5.520000000000000284e+01,2.490739999999999968e-02,1.800043905020096927e-03
5.560000000000000142e+01,2.574879999999999877e-02,1.263857207124285779e-03
5.600000000000000000e+01,2.361180000000000223e-02,8.345737474902979779e-04
5.639999999999999858e+01,2.361560000000000395e-02,1.333001860463817710e-03
5.679999999999999716e+01,2.443440000000000195e-02,1.809002587062827263e-03
5.720000000000000284e+01,2.383819999999999689e-02,1.163043051653720903e-03
5.760000000000000142e+01,2.241359999999999880e-02,1.654837714097669166e-03
5.800000000000000000e+01,2.209440000000000362e-02,1.185529442907260617e-03
5.839999999999999858e+01,2.149579999999999894e-02,1.444858519025305843e-03
5.879999999999999716e+01,2.258399999999999991e-02,1.090165033377974791e-03
5.920000000000000284e+01,2.266659999999999855e-02,9.963789239039533632e-04
5.960000000000000142e+01,2.193020000000000039e-02,2.103001792676363960e-03
6.000000000000000000e+01,2.201739999999999947e-02,2.546320219453947556e-03
6.039999999999999858e+01,2.178959999999999925e-02,2.231574995378824561e-03
6.079999999999999716e+01,2.332139999999999908e-02,1.762095275517189556e-03
6.120000000000000284e+01,2.270500000000000296e-02,1.441038549102694908e-03
6.160000000000000142e+01,2.165059999999999901e-02,1.342933564998656081e-03
6.200000000000000000e+01,2.064000000000000209e-02,8.153377827624571370e-04
6.239999999999999858e+01,2.137999999999999970e-02,6.244297398426822566e-04
6.279999999999999716e+01,2.010980000000000059e-02,6.307890614143524255e-04
6.320000000000000284e+01,1.842400000000000287e-02,4.397834694483183948e-04
6.360000000000000142e+01,1.805839999999999876e-02,7.827328152058018020e-04
6.400000000000000000e+01,1.981880000000000100e-02,1.085601556741698807e-03
6.440000000000000568e+01,2.005900000000000044e-02,1.298664005815206978e-03
6.479999999999999716e+01,1.874500000000000124e-02,1.052412704218264397e-03
6.520000000000000284e+01,1.995100000000000345e-02,1.151235727381668588e-03
6.559999999999999432e+01,1.672480000000000147e-02,6.479399200543212948e-04
6.600000000000000000e+01,1.794540000000000024e-02,8.108349770452675772e-04
6.640000000000000568e+01,1.716919999999999905e-02,1.287006736579105479e-03
6.679999999999999716e+01,1.656459999999999877e-02,1.703496598176820450e-03
6.720000000000000284e+01,1.613840000000000066e-02,1.256467611998017195e-03
6.759999999999999432e+01,1.541679999999999960e-02,2.900233438880392856e-04
6.800000000000000000e+01,1.645140000000000144e-02,1.122667697940935450e-03
6.840000000000000568e+01,1.750159999999999910e-02,1.560561008099331124e-03
6.879999999999999716e+01,1.611539999999999848e-02,9.357789589427623934e-04
6.920000000000000284e+01,1.728179999999999994e-02,7.703842807326743460e-04
6.959999999999999432e+01,1.742879999999999777e-02,6.018178628123296544e-04
7.000000000000000000e+01,1.647119999999999834e-02,1.223740184843171439e-03
7.040000000000000568e+01,1.632379999999999942e-02,9.975753806104078851e-04
7.079999999999999716e+01,1.440199999999999814e-02,1.004937958283992757e-03
7.120000000000000284e+01,1.371199999999999850e-02,7.456688943492277089e-04
7.159999999999999432e+01,1.339380000000000084e-02,1.636786864561174054e-03
7.200000000000000000e+01,1.341700000000000184e-02,1.337307406694511654e-03
7.240000000000000568e+01,1.364819999999999922e-02,2.136625526385005098e-03
7.279999999999999716e+01,1.450380000000000072e-02,1.711270037136161746e-03
7.320000000000000284e+01,1.354159999999999739e-02,1.967444728575621325e-03
7.359999999999999432e+01,1.321940000000000094e-02,9.846594639772677723e-04
7.400000000000000000e+01,1.319319999999999868e-02,1.034003936162720830e-03
7.440000000000000568e+01,1.468260000000000051e-02,5.869712599437896259e-04
7.479999999999999716e+01,1.468500000000000014e-02,7.587661036182358643e-04
7.520000000000000284e+01,1.555079999999999830e-02,1.258126360903386856e-03
7.559999999999999432e+01,1.650539999999999646e-02,5.349746349127219164e-04
7.600000000000000000e+01,1.587140000000000079e-02,1.311083086611981472e-03
7.640000000000000568e+01,1.726219999999999838e-02,1.216715965211273044e-03
7.679999999999999716e+01,1.587779999999999747e-02,7.892981946007478601e-04
7.720000000000000284e+01,1.574120000000000033e-02,5.840042294367391940e-04
7.759999999999999432e+01,1.490619999999999966e-02,1.757103309427194464e-03
7.800000000000000000e+01,1.381800000000000042e-02,1.844924198984879311e-03
7.840000000000000568e+01,1.351420000000000052e-02,1.475768931777600304e-03
7.879999999999999716e+01,1.410260000000000159e-02,1.199888644833345007e-03
7.920000000000000284e+01,1.407700000000000097e-02,1.740096750183736099e-03
7.959999999999999432e+01,1.360000000000000098e-02,1.195171744980611569e-03
8.000000000000000000e+01,1.427579999999999995e-02,1.416121689686306766e-03
8.040000000000000568e+01,1.358540000000000095e-02,7.060756050169131066e-04
8.079999999999999716e+01,1.170120000000000014e-02,1.499017591624594642e-03
8.120000000000000284e+01,1.234399999999999907e-02,1.181292216176844023e-03
8.159999999999999432e+01,1.233880000000000046e-02,1.099418000580306863e-03
8.200000000000000000e+01,1.308499999999999941e-02,9.428068731187740298e-04
8.240000000000000568e+01,1.145559999999999981e-02,1.712640727064494196e-03
8.279999999999999716e+01,1.269759999999999986e-02,1.107758890733899753e-03
8.320000000000000284e+01,1.214359999999999919e-02,8.455114192014201750e-04
8.359999999999999432e+01,1.371819999999999984e-02,6.894778023983078171e-04
8.400000000000000000e+01,1.406679999999999910e-02,9.869709924815422541e-04
8.440000000000000568e+01,1.408139999999999913e-02,7.335903216373567239e-04
8.479999999999999716e+01,1.324919999999999917e-02,5.350225602719943952e-04
8.520000000000000284e+01,1.157739999999999811e-02,1.235433875203363532e-03
8.559999999999999432e+01,9.989799999999998334e-03,1.082384561974162555e-03
8.600000000000000000e+01,1.013999999999999971e-02,9.291559610743506132e-04
8.640000000000000568e+01,1.155579999999999975e-02,1.693776709014502843e-03
8.679999999999999716e+01,1.242159999999999966e-02,1.619775928948198477e-03
8.720000000000000284e+01,1.242359999999999819e-02,1.400391323880578569e-03
8.759999999999999432e+01,1.217900000000000059e-02,1.680017529670449440e-03
8.800000000000000000e+01,1.277599999999999916e-02,2.263055324113840295e-03
8.840000000000000568e+01,1.197759999999999971e-02,1.696294331771465002e-03
8.879999999999999716e+01,1.244099999999999893e-02,1.590277239980501149e-03
8.920000000000000284e+01,1.208380000000000044e-02,1.374108561941158940e-03
8.959999999999999432e+01,1.229799999999999990e-02,1.688842591836195797e-03
9.000000000000000000e+01,1.250059999999999713e-02,2.084143699460284070e-03
9.040000000000000568e+01,1.403260000000000098e-02,1.764869077297236610e-03
9.079999999999999716e+01,1.306320000000000051e-02,1.776218128496610035e-03
9.120000000000000284e+01,1.285539999999999947e-02,1.058697293847490764e-03
9.159999999999999432e+01,1.211459999999999967e-02,1.336176732322487057e-03
9.200000000000000000e+01,1.224740000000000030e-02,1.576448844713966568e-03
9.240000000000000568e+01,1.184439999999999972e-02,1.744076047653885832e-03
9.279999999999999716e+01,9.523399999999999574e-03,1.379016192798329654e-03
9.320000000000000284e+01,9.876799999999999816e-03,1.397702378906181837e-03
9.359999999999999432e+01,1.183359999999999967e-02,1.651399485285132401e-03
9.400000000000000000e+01,1.062659999999999993e-02,1.800418384709509502e-03
9.440000000000000568e+01,1.134420000000000046e-02,1.538921485976461282e-03
9.479999999999999716e+01,1.101479999999999994e-02,7.791673376111191715e-04
9.520000000000000284e+01,1.103880000000000139e-02,8.873267380170620899e-04
9.559999999999999432e+01,1.178260000000000071e-02,1.100744366326714260e-03
9.600000000000000000e+01,1.162280000000000084e-02,1.355694080535870894e-03
9.640000000000000568e+01,1.121039999999999884e-02,1.074897418361398698e-03
9.679999999999999716e+01,1.151480000000000038e-02,6.340098106496459829e-04
9.720000000000000284e+01,1.029400000000000107e-02,1.347212492519275773e-03
9.759999999999999432e+01,1.004380000000000030e-02,5.757971344145435856e-04
9.800000000000000000e+01,1.093300000000000174e-02,8.041212595125188769e-04
9.840000000000000568e+01,1.117299999999999890e-02,1.091211391069576162e-03
9.879999999999999716e+01,1.093600000000000128e-02,5.456558439162911573e-04
9.920000000000000284e+01,1.018359999999999925e-02,9.369756987243584761e-04
9.959999999999999432e+01,1.101279999999999967e-02,9.430826262846750884e-04
1.000000000000000000e+02,8.904200000000001003e-03,8.245529940519286506e-04
1.004000000000000057e+02,8.298200000000000368e-03,8.966506231526300040e-04
1.007999999999999972e+02,7.829199999999999701e-03,4.085271594398590480e-04
1.012000000000000028e+02,8.557600000000000276e-03,7.900021898703826978e-04
1.015999999999999943e+02,9.910600000000000312e-03,7.375866457576355515e-04
1.020000000000000000e+02,1.063820000000000043e-02,1.494127752235397061e-03
1.024000000000000057e+02,1.011000000000000093e-02,1.432840884397147425e-03
1.027999999999999972e+02,1.131439999999999876e-02,1.773683754224523405e-03
1.032000000000000028e+02,1.192780000000000055e-02,1.711117599699096868e-03
1.035999999999999943e+02,1.172179999999999923e-02,1.266370854055003971e-03
1.040000000000000000e+02,1.143959999999999942e-02,1.443968787751313950e-03
1.044000000000000057e+02,1.154619999999999778e-02,1.543261008384518322e-03
1.047999999999999972e+02,9.959399999999998462e-03,1.560441495218580854e-03
1.052000000000000028e+02,1.030499999999999992e-02,1.986047204877064432e-03
1.055999999999999943e+02,1.066760000000000277e-02,2.001320778885783570e-03
1.060000000000000000e+02,1.093099999999999974e-02,1.686490379456698609e-03
1.064000000000000057e+02,1.085140000000000063e-02,1.131967340518267662e-03
