timestep,H(t)_mean,H(t)_err
4.000000000000000222e-01,7.809544000000000485e-01,3.343737917361343844e-03
8.000000000000000444e-01,6.580329999999999790e-01,6.225832289742474525e-03
1.199999999999999956e+00,5.845749999999999558e-01,5.135044839142109165e-03
1.600000000000000089e+00,5.215751999999999056e-01,1.209008329168996662e-03
2.000000000000000000e+00,4.834281999999999746e-01,2.532569631816665966e-03
2.399999999999999911e+00,4.349236000000000213e-01,5.345293374549245011e-03
2.799999999999999822e+00,4.024472000000000049e-01,3.931295058883269369e-03
3.200000000000000178e+00,3.709469999999999712e-01,7.959390856089421790e-03
3.600000000000000089e+00,3.487240000000000339e-01,1.040674332824635673e-02
4.000000000000000000e+00,3.274809999999999666e-01,9.809995096838736856e-03
4.400000000000000355e+00,3.064609999999999834e-01,1.088190128148569524e-02
4.799999999999999822e+00,2.838124000000000202e-01,3.482436310975411866e-03
5.200000000000000178e+00,2.631439999999999335e-01,6.950573479936742946e-03
5.599999999999999645e+00,2.552490000000000037e-01,7.379993855010992185e-03
6.000000000000000000e+00,2.471788000000000041e-01,4.942770057366620978e-03
6.400000000000000355e+00,2.376172000000000006e-01,7.615910040172482569e-03
6.799999999999999822e+00,2.215704000000000007e-01,5.724752261888719530e-03
7.200000000000000178e+00,2.054498000000000157e-01,4.142738084890232840e-03
7.599999999999999645e+00,1.994145999999999697e-01,1.254329167324112673e-03
8.000000000000000000e+00,1.938121999999999900e-01,4.558554369534272357e-03
8.400000000000000355e+00,1.886536000000000046e-01,6.003696028281240186e-04
8.800000000000000711e+00,1.823526000000000313e-01,3.540450163467918996e-03
9.199999999999999289e+00,1.746208000000000204e-01,2.559843967901169817e-03
9.599999999999999645e+00,1.705196000000000212e-01,6.569326629115045113e-03
1.000000000000000000e+01,1.632452000000000070e-01,5.871939095392591026e-03
1.040000000000000036e+01,1.610098000000000085e-01,4.592931954645091894e-03
1.080000000000000071e+01,1.542698000000000125e-01,2.158126117723425854e-03
1.119999999999999929e+01,1.503728000000000287e-01,4.405334350534583464e-03
1.159999999999999964e+01,1.465559999999999918e-01,2.575531945055233116e-03
1.200000000000000000e+01,1.466275999999999968e-01,3.317874810778730782e-03
1.240000000000000036e+01,1.438334000000000001e-01,2.040531024022912941e-03
1.280000000000000071e+01,1.410887999999999864e-01,3.949124173788409915e-03
1.319999999999999929e+01,1.329043999999999781e-01,2.818766655826621635e-03
1.359999999999999964e+01,1.293713999999999975e-01,2.992312326612978860e-03
1.400000000000000000e+01,1.237262000000000084e-01,2.774362564626332069e-03
1.440000000000000036e+01,1.215275999999999995e-01,1.188644126725909049e-03
1.480000000000000071e+01,1.161654000000000020e-01,4.773771377014194607e-03
1.519999999999999929e+01,1.133335999999999927e-01,4.233970590356054067e-03
1.559999999999999964e+01,1.120106000000000018e-01,4.717093232065696848e-03
1.600000000000000000e+01,1.083311999999999886e-01,5.745068088369362051e-03
1.639999999999999858e+01,1.099313999999999847e-01,6.205999497260695531e-03
1.680000000000000071e+01,1.053231999999999918e-01,4.219730766293033029e-03
1.719999999999999929e+01,1.031662000000000134e-01,5.145179806381890673e-03
1.760000000000000142e+01,9.536300000000000332e-02,3.495637123615664803e-03
1.800000000000000000e+01,9.891400000000000192e-02,3.850506005708859668e-03
1.839999999999999858e+01,9.804999999999999827e-02,3.648220689596504661e-03
1.880000000000000071e+01,9.651799999999999269e-02,5.532615538784527685e-03
1.919999999999999929e+01,9.357599999999999252e-02,3.820542683965197535e-03
1.960000000000000142e+01,8.866479999999998807e-02,2.909689337369196407e-03
2.000000000000000000e+01,8.532579999999997944e-02,4.859225323032467098e-03
2.039999999999999858e+01,8.747060000000000946e-02,2.533217136370270912e-03
2.080000000000000071e+01,7.980940000000000256e-02,3.448125180442263796e-03
2.119999999999999929e+01,7.852239999999999220e-02,2.410165940345186837e-03
2.160000000000000142e+01,8.080560000000000520e-02,4.782657583394403153e-03
2.200000000000000000e+01,8.040079999999999449e-02,6.924773659838998931e-03
2.239999999999999858e+01,8.116960000000000841e-02,5.599842565644143344e-03
2.280000000000000071e+01,7.712959999999999261e-02,3.880861703281886926e-03
2.319999999999999929e+01,7.703000000000000125e-02,7.925570011046537437e-04
2.360000000000000142e+01,7.814319999999999600e-02,2.304573613491222965e-03
2.400000000000000000e+01,7.317179999999999518e-02,2.405634498422400385e-03
2.439999999999999858e+01,6.764019999999999755e-02,3.276432425672775369e-03
2.480000000000000071e+01,6.987140000000000017e-02,2.676179900529859334e-03
2.519999999999999929e+01,6.706600000000000061e-02,4.198707860759068496e-03
2.560000000000000142e+01,6.549140000000000517e-02,3.331539172814871469e-03
2.600000000000000000e+01,6.627220000000000333e-02,3.485035672701214653e-03
2.639999999999999858e+01,6.368240000000000012e-02,4.194660601288260730e-03
2.680000000000000071e+01,6.358240000000001113e-02,2.293466428792887129e-03
2.719999999999999929e+01,7.008240000000000303e-02,3.269454137925778634e-03
2.760000000000000142e+01,6.532479999999998843e-02,3.782060449014531568e-03
2.800000000000000000e+01,6.455839999999998802e-02,2.780045837751601249e-03
2.839999999999999858e+01,6.465519999999999601e-02,4.451753995898696109e-03
2.880000000000000071e+01,6.199280000000000068e-02,2.070338291197842007e-03
2.919999999999999929e+01,5.966139999999999638e-02,3.422049964568020866e-03
2.960000000000000142e+01,6.003959999999999159e-02,2.790105958561430073e-03
3.000000000000000000e+01,5.989419999999999467e-02,3.156627257057761753e-03
3.039999999999999858e+01,5.846320000000000683e-02,3.862016499187956829e-03
3.080000000000000071e+01,5.663680000000000103e-02,2.621326580187978601e-03
3.119999999999999929e+01,5.728400000000000158e-02,2.571755159419339930e-03
3.160000000000000142e+01,5.629100000000000076e-02,4.109629034353343147e-03
3.200000000000000000e+01,5.497280000000000222e-02,3.790170634681240980e-03
3.239999999999999858e+01,5.347900000000001264e-02,4.046525237781175427e-03
3.279999999999999716e+01,5.171339999999999965e-02,4.032691069248920540e-03
3.320000000000000284e+01,5.105539999999999384e-02,4.478933987010749219e-03
3.360000000000000142e+01,5.039880000000000054e-02,4.101743170896977701e-03
3.400000000000000000e+01,5.078860000000000319e-02,4.188755932254826890e-03
3.439999999999999858e+01,5.224700000000000177e-02,3.803327713989422282e-03
3.479999999999999716e+01,5.047439999999999566e-02,2.867157487826575528e-03
3.520000000000000284e+01,5.069919999999999982e-02,3.291514657418375105e-03
3.560000000000000142e+01,4.685299999999999881e-02,3.696527830275324420e-03
3.600000000000000000e+01,4.749920000000000531e-02,4.044268109312239984e-03
3.639999999999999858e+01,4.507819999999999883e-02,5.016278704378376689e-03
3.679999999999999716e+01,4.591959999999999792e-02,3.412104784440243236e-03
3.720000000000000284e+01,4.927700000000000136e-02,2.490922258923389254e-03
3.760000000000000142e+01,4.697459999999999830e-02,2.931840200283773734e-03
3.800000000000000000e+01,4.573399999999999688e-02,3.124418841960853368e-03
3.839999999999999858e+01,4.335980000000000389e-02,2.996154809084469999e-03
3.879999999999999716e+01,4.604239999999999722e-02,4.818397727460861819e-03
3.920000000000000284e+01,4.202180000000000498e-02,3.031160922814887197e-03
3.960000000000000142e+01,3.802520000000000205e-02,1.977199974711712615e-03
4.000000000000000000e+01,3.957019999999999982e-02,3.535674156366789243e-03
4.039999999999999858e+01,4.177099999999999563e-02,2.842688463409242736e-03
4.079999999999999716e+01,3.933679999999999816e-02,2.760869743396091643e-03
4.120000000000000284e+01,3.959780000000000244e-02,2.049076362657087456e-03
4.160000000000000142e+01,3.858020000000000199e-02,8.525835091062933290e-04
4.200000000000000000e+01,3.752420000000000061e-02,1.607400740325822495e-03
4.239999999999999858e+01,3.591799999999999854e-02,1.401735317383420200e-03
4.279999999999999716e+01,3.846059999999999757e-02,2.536140701932762011e-03
4.320000000000000284e+01,3.683299999999999769e-02,2.026299558308198787e-03
4.360000000000000142e+01,3.523159999999999487e-02,2.510852317441231336e-03
4.400000000000000000e+01,3.579200000000000437e-02,2.251213295092226868e-03
4.439999999999999858e+01,3.303219999999999767e-02,2.977241196141153061e-03
4.479999999999999716e+01,3.652919999999999778e-02,2.143893803340081537e-03
4.520000000000000284e+01,3.466419999999999918e-02,2.506779555525375913e-03
4.560000000000000142e+01,3.338500000000000495e-02,2.928860375641010195e-03
4.600000000000000000e+01,3.340200000000000113e-02,1.986095969483851927e-03
4.639999999999999858e+01,3.171940000000000176e-02,2.062365379849070198e-03
4.679999999999999716e+01,3.215680000000000621e-02,2.562895850400480433e-03
4.720000000000000284e+01,3.011899999999999994e-02,2.435276616731660206e-03
4.760000000000000142e+01,3.084999999999999895e-02,3.253458114068782936e-03
4.800000000000000000e+01,3.275740000000000596e-02,2.793793936567262257e-03
4.839999999999999858e+01,3.067560000000000425e-02,2.711576913900839818e-03
4.879999999999999716e+01,3.184359999999999968e-02,3.672774463535706524e-03
4.920000000000000284e+01,3.066880000000000300e-02,3.036467180787567801e-03
4.960000000000000142e+01,3.034800000000000345e-02,4.110310097790676430e-03
5.000000000000000000e+01,2.769800000000000040e-02,3.224455163279527255e-03
5.039999999999999858e+01,3.030240000000000017e-02,3.761399587919369344e-03
5.079999999999999716e+01,2.805880000000000180e-02,3.726593530290096389e-03
5.120000000000000284e+01,2.639080000000000245e-02,4.136383316376759413e-03
5.160000000000000142e+01,2.673539999999999944e-02,5.328205701734871303e-04
5.200000000000000000e+01,2.655680000000000193e-02,1.481974540941915011e-03
5.239999999999999858e+01,2.754799999999999957e-02,1.924379562352500437e-03
5.279999999999999716e+01,2.789739999999999928e-02,2.099085791481615591e-03
5.320000000000000284e+01,2.926880000000000107e-02,2.472550796242617421e-03
5.360000000000000142e+01,2.669700000000000545e-02,1.509527541981264646e-03
5.400000000000000000e+01,2.662160000000000221e-02,2.715292960253092112e-03
5.439999999999999858e+01,2.620460000000000150e-02,2.611319467242566219e-03
5.479999999999999716e+01,2.562240000000000004e-02,3.123983972430076014e-03
5.520000000000000284e+01,2.441379999999999939e-02,3.211087594569789726e-03
5.560000000000000142e+01,2.542500000000000315e-02,3.702195200148150362e-03
5.600000000000000000e+01,2.483219999999999872e-02,4.653840053117424755e-03
5.639999999999999858e+01,2.464560000000000015e-02,4.019408745076817439e-03
5.679999999999999716e+01,2.486740000000000131e-02,3.330832262363266679e-03
5.720000000000000284e+01,2.428980000000000028e-02,3.135733030728222407e-03
5.760000000000000142e+01,2.427700000000000344e-02,2.549778304088416714e-03
5.800000000000000000e+01,2.308879999999999960e-02,3.177422641072477714e-03
5.839999999999999858e+01,2.475100000000000217e-02,1.454890923746519514e-03
5.879999999999999716e+01,2.369660000000000516e-02,1.512682967445591088e-03
5.920000000000000284e+01,2.287440000000000306e-02,1.978745400500023406e-03
5.960000000000000142e+01,2.168700000000000142e-02,1.185121723706050300e-03
6.000000000000000000e+01,2.001379999999999826e-02,1.851525597986698269e-03
6.039999999999999858e+01,2.139519999999999617e-02,1.951866988296077155e-03
6.079999999999999716e+01,1.878799999999999915e-02,1.702566004594242063e-03
6.120000000000000284e+01,1.714219999999999980e-02,1.542928462372769897e-03
6.160000000000000142e+01,1.852679999999999952e-02,1.545576183822719094e-03
6.200000000000000000e+01,1.950239999999999613e-02,2.239101373319216104e-03
6.239999999999999858e+01,1.883999999999999911e-02,2.798739162551594755e-03
6.279999999999999716e+01,1.660679999999999795e-02,2.215983357338227079e-03
6.320000000000000284e+01,2.008399999999999769e-02,2.409411069120418782e-03
6.360000000000000142e+01,2.145680000000000157e-02,2.872078435558471799e-03
6.400000000000000000e+01,2.207220000000000015e-02,3.041187176087654757e-03
6.440000000000000568e+01,2.190659999999999830e-02,2.643998857790978273e-03
6.479999999999999716e+01,1.908280000000000393e-02,1.941527785018798413e-03
6.520000000000000284e+01,1.923699999999999716e-02,2.588098645724308273e-03
6.559999999999999432e+01,2.051099999999999798e-02,1.806971250463050137e-03
6.600000000000000000e+01,2.068479999999999971e-02,2.228582316182195662e-03
6.640000000000000568e+01,1.910799999999999998e-02,2.105061115502350391e-03
6.679999999999999716e+01,2.095640000000000003e-02,2.939290570869100040e-03
6.720000000000000284e+01,1.993119999999999961e-02,2.163910104417464050e-03
6.759999999999999432e+01,1.770879999999999677e-02,1.675327890294911687e-03
6.800000000000000000e+01,1.974880000000000038e-02,2.256145083987286509e-03
6.840000000000000568e+01,1.771299999999999958e-02,2.094930500040514693e-03
6.879999999999999716e+01,1.945580000000000226e-02,2.315546833903386805e-03
6.920000000000000284e+01,2.002679999999999738e-02,2.856306310604659476e-03
6.959999999999999432e+01,2.166420000000000151e-02,1.947369954579766154e-03
7.000000000000000000e+01,2.046859999999999999e-02,1.893805602484056059e-03
7.040000000000000568e+01,2.046699999999999908e-02,2.475798638823440735e-03
7.079999999999999716e+01,1.861780000000000032e-02,1.025878959721857357e-03
7.120000000000000284e+01,1.919840000000000088e-02,9.270744630287256665e-04
7.159999999999999432e+01,1.737400000000000055e-02,1.591997770098940940e-03
7.200000000000000000e+01,1.820100000000000190e-02,1.318996550412471691e-03
7.240000000000000568e+01,1.547560000000000081e-02,8.264396892695799902e-04
7.279999999999999716e+01,1.622540000000000093e-02,1.557911056511250255e-03
7.320000000000000284e+01,1.666799999999999879e-02,1.133123073633222119e-03
7.359999999999999432e+01,1.525020000000000021e-02,1.071231226206555186e-03
7.400000000000000000e+01,1.606660000000000033e-02,1.856726005634649597e-03
7.440000000000000568e+01,1.732479999999999784e-02,2.689269610879504308e-03
7.479999999999999716e+01,1.608019999999999936e-02,2.105494416995684799e-03
7.520000000000000284e+01,1.824920000000000014e-02,2.951866975322567106e-03
7.559999999999999432e+01,1.684820000000000068e-02,2.454257105520935359e-03
7.600000000000000000e+01,1.606139999999999998e-02,2.060327585603803982e-03
7.640000000000000568e+01,1.402559999999999918e-02,2.355472343289133179e-03
7.679999999999999716e+01,1.325680000000000261e-02,2.202771286357256119e-03
7.720000000000000284e+01,1.669199999999999851e-02,1.863794275128024961e-03
7.759999999999999432e+01,1.689159999999999967e-02,1.881664305873925053e-03
7.800000000000000000e+01,1.503599999999999902e-02,2.512947373105931317e-03
7.840000000000000568e+01,1.507520000000000041e-02,1.787023234320136208e-03
7.879999999999999716e+01,1.655880000000000199e-02,1.759936913642077064e-03
7.920000000000000284e+01,1.593939999999999940e-02,1.509764835992678540e-03
7.959999999999999432e+01,1.424039999999999681e-02,1.452094783407749607e-03
8.000000000000000000e+01,1.280959999999999911e-02,1.182202461509872021e-03
8.040000000000000568e+01,1.391620000000000010e-02,1.364839968641012305e-03
8.079999999999999716e+01,1.373439999999999904e-02,1.282841517881300620e-03
8.120000000000000284e+01,1.331560000000000209e-02,1.477187821504090046e-03
8.159999999999999432e+01,1.098879999999999822e-02,1.178053920667471166e-03
8.200000000000000000e+01,1.166240000000000158e-02,8.502679342419071796e-04
8.240000000000000568e+01,1.315540000000000112e-02,9.096099493739060122e-04
8.279999999999999716e+01,1.335040000000000185e-02,7.406457047738816777e-04
8.320000000000000284e+01,1.256339999999999887e-02,6.686902571445166137e-04
8.359999999999999432e+01,1.362039999999999952e-02,1.411418456730674986e-03
8.400000000000000000e+01,1.480440000000000055e-02,2.135295052211754613e-03
8.440000000000000568e+01,1.531360000000000186e-02,1.742339765946929230e-03
8.479999999999999716e+01,1.554720000000000060e-02,2.243238872701701098e-03
8.520000000000000284e+01,1.496620000000000242e-02,2.798155917742969814e-03
8.559999999999999432e+01,1.423939999999999928e-02,1.296417239934736804e-03
8.600000000000000000e+01,1.341239999999999967e-02,1.691988167807328101e-03
8.640000000000000568e+01,1.383980000000000279e-02,1.147590144607385509e-03
8.679999999999999716e+01,1.325300000000000089e-02,1.590757712538273761e-03
8.720000000000000284e+01,1.362700000000000022e-02,7.734127617255872429e-04
8.759999999999999432e+01,1.502960000000000060e-02,3.803859355969937159e-04
8.800000000000000000e+01,1.505579999999999939e-02,5.685516159505661984e-04
8.840000000000000568e+01,1.423679999999999911e-02,6.056016347401977848e-04
8.879999999999999716e+01,1.528240000000000154e-02,1.577013874384115832e-03
8.920000000000000284e+01,1.481080000000000244e-02,1.623876485450786999e-03
8.959999999999999432e+01,1.543620000000000062e-02,1.042395817336197635e-03
9.000000000000000000e+01,1.650519999999999765e-02,1.390541419735492803e-03
9.040000000000000568e+01,1.646960000000000091e-02,1.970768215696609791e-03
9.079999999999999716e+01,1.541939999999999977e-02,2.406262238410435648e-03
9.120000000000000284e+01,1.478579999999999825e-02,1.502031504330052355e-03
9.159999999999999432e+01,1.354540000000000258e-02,1.875500429218825843e-03
9.200000000000000000e+01,1.375359999999999951e-02,2.242212269166325017e-03
9.240000000000000568e+01,1.399640000000000085e-02,1.892177544523769486e-03
9.279999999999999716e+01,1.398320000000000118e-02,2.394739555776368833e-03
9.320000000000000284e+01,1.400000000000000203e-02,2.463019995858742577e-03
9.359999999999999432e+01,1.337179999999999966e-02,1.424984856059880768e-03
9.400000000000000000e+01,1.332440000000000013e-02,1.879041553558622249e-03
9.440000000000000568e+01,1.319120000000000015e-02,1.008419922452943440e-03
9.479999999999999716e+01,1.364159999999999852e-02,1.534524245491090564e-03
9.520000000000000284e+01,1.234479999999999952e-02,1.235707424919021795e-03
9.559999999999999432e+01,1.300060000000000104e-02,1.478897345998024136e-03
9.600000000000000000e+01,1.425099999999999978e-02,2.153521836434448434e-03
9.640000000000000568e+01,1.276459999999999748e-02,1.396355026488607480e-03
9.679999999999999716e+01,1.209040000000000115e-02,8.072931685577425763e-04
9.720000000000000284e+01,1.149060000000000012e-02,1.527870105735432095e-03
9.759999999999999432e+01,1.064080000000000061e-02,2.069864546292824164e-03
9.800000000000000000e+01,1.188140000000000029e-02,2.697122218217038337e-03
9.840000000000000568e+01,1.153639999999999874e-02,2.517733973238634512e-03
9.879999999999999716e+01,1.130100000000000028e-02,2.142875358017820066e-03
9.920000000000000284e+01,1.068919999999999940e-02,1.732172000697390418e-03
9.959999999999999432e+01,1.108599999999999863e-02,1.367682273044437593e-03
1.000000000000000000e+02,1.187720000000000095e-02,1.798133793687221784e-03
1.004000000000000057e+02,1.083920000000000022e-02,2.311634170884311820e-03
1.007999999999999972e+02,9.597400000000000722e-03,2.093947387113630296e-03
1.012000000000000028e+02,1.061419999999999898e-02,1.703755070425323499e-03
1.015999999999999943e+02,1.146659999999999867e-02,1.347836547953793710e-03
1.020000000000000000e+02,1.102459999999999898e-02,1.444306497942870549e-03
1.024000000000000057e+02,1.149079999999999893e-02,1.503155327968470683e-03
1.027999999999999972e+02,1.090480000000000095e-02,1.916240418110420462e-03
1.032000000000000028e+02,9.635799999999999921e-03,1.265978214662479701e-03
1.035999999999999943e+02,9.646999999999999326e-03,1.454260361833464637e-03
1.040000000000000000e+02,1.149039999999999957e-02,2.026707443120491677e-03
1.044000000000000057e+02,1.148300000000000189e-02,2.445136990027347960e-03
1.047999999999999972e+02,1.006620000000000084e-02,2.022543433402605381e-03
1.052000000000000028e+02,1.195680000000000007e-02,1.861747872296353823e-03
1.055999999999999943e+02,1.130100000000000028e-02,2.100090783751978451e-03
1.060000000000000000e+02,1.195620000000000016e-02,3.251334455266021752e-03
1.064000000000000057e+02,9.854800000000000365e-03,2.092991289996210414e-03
