timestep,H(t)_mean,H(t)_err
4.000000000000000222e-01,7.873405999999999461e-01,7.209611810631693166e-03
8.000000000000000444e-01,6.584461999999999815e-01,1.471390819055223148e-02
1.199999999999999956e+00,5.757336000000000675e-01,9.809803788047948697e-03
1.600000000000000089e+00,5.098483999999999794e-01,6.956583921724808148e-03
2.000000000000000000e+00,4.860651999999999751e-01,8.142977559836447193e-03
2.399999999999999911e+00,4.370475999999999805e-01,5.634557210642198236e-03
2.799999999999999822e+00,3.973661999999999472e-01,1.066447208913784070e-02
3.200000000000000178e+00,3.693608000000000446e-01,6.564881829858021552e-03
3.600000000000000089e+00,3.715962000000000431e-01,8.894863154652805567e-03
4.000000000000000000e+00,3.418710000000000360e-01,6.495853092550655725e-03
4.400000000000000355e+00,3.265448000000000239e-01,1.018603374920777800e-02
4.799999999999999822e+00,2.985260000000000136e-01,1.161844578676511468e-02
5.200000000000000178e+00,2.784714000000000356e-01,1.144989287111455520e-02
5.599999999999999645e+00,2.651272000000000628e-01,6.140759158280019274e-03
6.000000000000000000e+00,2.523539999999999672e-01,6.513175738455095204e-03
6.400000000000000355e+00,2.393936000000000119e-01,5.639446839894849198e-03
6.799999999999999822e+00,2.296558000000000210e-01,6.891826749128273505e-03
7.200000000000000178e+00,2.155145999999999729e-01,1.165242471162118015e-02
7.599999999999999645e+00,2.060436000000000212e-01,9.134366812209809491e-03
8.000000000000000000e+00,2.000024000000000246e-01,5.052619455292470772e-03
8.400000000000000355e+00,1.927806000000000242e-01,1.903863640075098822e-03
8.800000000000000711e+00,1.817787999999999904e-01,4.972246930714522423e-03
9.199999999999999289e+00,1.738664000000000043e-01,5.233050339906927632e-03
9.599999999999999645e+00,1.651775999999999800e-01,6.091890491464865311e-03
1.000000000000000000e+01,1.565304000000000140e-01,4.838564731405378162e-03
1.040000000000000036e+01,1.490348000000000228e-01,4.934288351930800690e-03
1.080000000000000071e+01,1.430253999999999970e-01,9.017553585091689708e-03
1.119999999999999929e+01,1.467193999999999998e-01,7.619947503756178443e-03
1.159999999999999964e+01,1.285007999999999984e-01,8.369643776171121693e-03
1.200000000000000000e+01,1.317354000000000025e-01,4.908001758353391746e-03
1.240000000000000036e+01,1.308867999999999976e-01,5.326293292713044948e-03
1.280000000000000071e+01,1.300727999999999884e-01,4.269858409830469548e-03
1.319999999999999929e+01,1.258712000000000164e-01,3.487275934020707749e-03
1.359999999999999964e+01,1.182943999999999940e-01,5.195459590835058324e-03
1.400000000000000000e+01,1.240713999999999845e-01,7.775413613435620992e-03
1.440000000000000036e+01,1.224692000000000142e-01,3.693889540849864140e-03
1.480000000000000071e+01,1.206798000000000037e-01,6.656039253189539526e-03
1.519999999999999929e+01,1.157993999999999968e-01,6.661368512550554927e-03
1.559999999999999964e+01,1.123563999999999952e-01,6.031421645018694190e-03
1.600000000000000000e+01,1.079111999999999849e-01,4.687100237886959730e-03
1.639999999999999858e+01,1.030288000000000037e-01,5.226865632479946698e-03
1.680000000000000071e+01,1.002162000000000192e-01,7.057805192834381604e-03
1.719999999999999929e+01,9.891900000000000692e-02,6.163856479510210727e-03
1.760000000000000142e+01,9.592499999999999638e-02,3.810801398656191771e-03
1.800000000000000000e+01,9.078800000000000758e-02,6.791131871786909753e-03
1.839999999999999858e+01,9.488719999999999100e-02,6.634347996600720859e-03
1.880000000000000071e+01,9.168839999999998935e-02,7.033075640144927261e-03
1.919999999999999929e+01,8.893700000000000216e-02,4.668150950858379264e-03
1.960000000000000142e+01,9.151960000000000650e-02,3.705635014407111013e-03
2.000000000000000000e+01,8.966260000000000896e-02,2.780198187180186933e-03
2.039999999999999858e+01,8.696400000000001351e-02,4.768134048031787142e-03
2.080000000000000071e+01,9.271899999999999586e-02,5.497298272788189027e-03
2.119999999999999929e+01,8.067080000000000084e-02,4.349506700765040992e-03
2.160000000000000142e+01,8.955639999999999434e-02,6.528167404409907122e-03
2.200000000000000000e+01,8.712860000000000049e-02,5.185964120585485546e-03
2.239999999999999858e+01,8.333199999999998941e-02,5.423550718855681650e-03
2.280000000000000071e+01,7.908760000000000789e-02,5.969412865600769343e-03
2.319999999999999929e+01,7.260219999999999174e-02,5.515599327362349404e-03
2.360000000000000142e+01,6.974199999999999844e-02,6.586656928973906241e-03
2.400000000000000000e+01,7.143380000000000563e-02,5.798530627667667497e-03
2.439999999999999858e+01,7.275600000000000123e-02,6.010740237275272006e-03
2.480000000000000071e+01,7.289740000000001496e-02,6.428137153172760500e-03
2.519999999999999929e+01,6.668179999999999941e-02,6.338649181016408479e-03
2.560000000000000142e+01,6.475659999999999750e-02,4.672015235420364475e-03
2.600000000000000000e+01,6.204380000000000311e-02,2.123614710817384350e-03
2.639999999999999858e+01,6.259440000000000837e-02,3.835299735353158920e-03
2.680000000000000071e+01,6.690020000000000688e-02,2.620962922286387137e-03
2.719999999999999929e+01,6.568720000000000114e-02,4.399155582609007992e-03
2.760000000000000142e+01,6.307079999999999631e-02,3.808056635608246792e-03
2.800000000000000000e+01,6.057439999999999353e-02,5.780490944547875785e-03
2.839999999999999858e+01,6.006940000000000890e-02,6.618376399087617587e-03
2.880000000000000071e+01,6.458220000000000627e-02,7.857178478308864122e-03
2.919999999999999929e+01,6.054859999999999409e-02,8.530387356972719132e-03
2.960000000000000142e+01,6.247599999999999681e-02,9.237394324158734044e-03
3.000000000000000000e+01,6.428059999999999330e-02,1.083923635963345879e-02
3.039999999999999858e+01,5.683739999999999626e-02,9.567370028382930075e-03
3.080000000000000071e+01,5.558020000000000321e-02,9.502622792682029890e-03
3.119999999999999929e+01,5.554459999999999953e-02,9.043758713057310078e-03
3.160000000000000142e+01,5.410399999999999932e-02,7.610418970069914024e-03
3.200000000000000000e+01,5.181019999999999376e-02,6.158671597024799500e-03
3.239999999999999858e+01,4.779999999999999527e-02,5.962355356736128396e-03
3.279999999999999716e+01,4.632479999999999237e-02,4.559084956435884191e-03
3.320000000000000284e+01,4.495180000000000009e-02,4.462274122014468422e-03
3.360000000000000142e+01,4.807340000000000224e-02,4.520443812282151988e-03
3.400000000000000000e+01,4.983440000000000092e-02,5.412186809414471465e-03
3.439999999999999858e+01,4.778840000000000171e-02,5.621121992983251804e-03
3.479999999999999716e+01,4.511300000000000032e-02,4.048949271107257775e-03
3.520000000000000284e+01,4.194800000000000612e-02,3.615539862869720632e-03
3.560000000000000142e+01,4.361740000000000061e-02,3.584943717828774877e-03
3.600000000000000000e+01,4.454980000000000051e-02,3.736758346481613112e-03
3.639999999999999858e+01,4.902940000000000076e-02,4.603329725318403183e-03
3.679999999999999716e+01,4.413960000000000106e-02,3.274726012966580439e-03
3.720000000000000284e+01,4.801799999999999818e-02,2.528564236874356139e-03
3.760000000000000142e+01,4.256180000000000380e-02,3.214924188841783003e-03
3.800000000000000000e+01,4.438920000000000365e-02,3.057196614547386376e-03
3.839999999999999858e+01,4.566660000000000164e-02,2.912376445447943663e-03
3.879999999999999716e+01,4.959919999999999607e-02,1.966921360908971059e-03
3.920000000000000284e+01,4.574460000000000331e-02,1.160566870111326768e-03
3.960000000000000142e+01,3.954920000000000657e-02,2.423729923073113073e-03
4.000000000000000000e+01,3.558179999999999676e-02,4.412593074372483243e-03
4.039999999999999858e+01,3.978359999999999536e-02,4.006617383778989135e-03
4.079999999999999716e+01,3.843219999999999970e-02,3.247987059703286508e-03
4.120000000000000284e+01,3.525099999999999761e-02,4.103998720760034316e-03
4.160000000000000142e+01,3.653839999999999866e-02,2.247316991436676750e-03
4.200000000000000000e+01,3.819600000000000078e-02,4.375812495982888198e-03
4.239999999999999858e+01,3.902780000000000138e-02,4.038677127476272659e-03
4.279999999999999716e+01,3.680819999999999925e-02,3.792693098577843130e-03
4.320000000000000284e+01,3.505359999999999726e-02,3.450762547611759771e-03
4.360000000000000142e+01,3.478339999999999904e-02,2.044627902577874669e-03
4.400000000000000000e+01,3.538400000000000573e-02,3.831950743420379276e-03
4.439999999999999858e+01,3.800679999999999337e-02,3.332202940998642542e-03
4.479999999999999716e+01,3.702840000000000298e-02,1.737245768450738697e-03
4.520000000000000284e+01,3.290859999999999619e-02,3.384830418204137683e-03
4.560000000000000142e+01,3.600720000000000309e-02,2.634444237405681594e-03
4.600000000000000000e+01,2.971920000000000117e-02,1.608057100976206105e-03
4.639999999999999858e+01,2.839279999999999582e-02,2.858022662611337753e-03
4.679999999999999716e+01,2.658220000000000027e-02,1.620763505265342694e-03
4.720000000000000284e+01,2.431819999999999815e-02,2.191445490994471841e-03
4.760000000000000142e+01,2.540020000000000125e-02,2.061008622010107073e-03
4.800000000000000000e+01,2.951620000000000285e-02,2.936339581860381107e-03
4.839999999999999858e+01,2.766720000000000290e-02,3.319445742891424453e-03
4.879999999999999716e+01,2.262220000000000203e-02,2.498637096498809110e-03
4.920000000000000284e+01,2.787859999999999644e-02,4.894605587787436568e-03
4.960000000000000142e+01,2.430519999999999903e-02,5.086548568528565135e-03
5.000000000000000000e+01,2.474760000000000154e-02,6.842588666579337876e-03
5.039999999999999858e+01,2.571279999999999746e-02,5.367252652894215562e-03
5.079999999999999716e+01,2.516760000000000178e-02,7.419671748803985042e-03
5.120000000000000284e+01,2.162940000000000002e-02,4.629608175645105565e-03
5.160000000000000142e+01,2.305059999999999748e-02,2.902937384788036035e-03
5.200000000000000000e+01,2.303639999999999854e-02,2.652161921904467798e-03
5.239999999999999858e+01,2.073359999999999786e-02,2.298233160495253159e-03
5.279999999999999716e+01,2.211559999999999915e-02,8.195680325634959644e-04
5.320000000000000284e+01,2.169000000000000095e-02,2.540442382735731523e-03
5.360000000000000142e+01,1.891479999999999898e-02,3.924729180465830712e-03
5.400000000000000000e+01,2.227780000000000038e-02,4.295952099360513324e-03
5.439999999999999858e+01,2.223299999999999929e-02,3.068361109778312661e-03
5.479999999999999716e+01,2.297219999999999818e-02,2.349718395893431525e-03
5.520000000000000284e+01,2.085000000000000048e-02,2.332445240514769390e-03
5.560000000000000142e+01,2.177919999999999856e-02,3.101974957990473371e-03
5.600000000000000000e+01,2.415979999999999864e-02,4.761256025462188082e-03
5.639999999999999858e+01,2.502219999999999445e-02,3.879587122362378356e-03
5.679999999999999716e+01,2.530860000000000401e-02,2.405455769703529565e-03
5.720000000000000284e+01,2.574540000000000162e-02,3.967444310888306944e-03
5.760000000000000142e+01,2.806219999999999895e-02,2.992691554437242225e-03
5.800000000000000000e+01,2.798340000000000202e-02,1.864446368228381236e-03
5.839999999999999858e+01,2.773919999999999858e-02,3.894901403116643457e-03
5.879999999999999716e+01,2.518859999999999849e-02,2.370479436738483908e-03
5.920000000000000284e+01,2.794200000000000156e-02,1.889728922358971342e-03
5.960000000000000142e+01,2.433220000000000174e-02,2.023596338205819155e-03
6.000000000000000000e+01,2.571700000000000028e-02,2.820492652002482784e-03
6.039999999999999858e+01,2.619000000000000147e-02,1.938130542558988770e-03
6.079999999999999716e+01,2.659020000000000133e-02,2.016424890741036653e-03
6.120000000000000284e+01,2.393959999999999838e-02,1.574339150246858044e-03
6.160000000000000142e+01,2.211000000000000118e-02,3.758000798296879177e-04
6.200000000000000000e+01,2.209880000000000178e-02,9.990802970732627544e-04
6.239999999999999858e+01,2.345320000000000044e-02,1.440815963265259679e-03
6.279999999999999716e+01,2.039699999999999847e-02,3.316922519444793962e-03
6.320000000000000284e+01,2.253280000000000213e-02,2.861834191563166103e-03
6.360000000000000142e+01,2.346480000000000093e-02,3.002734660272199721e-03
6.400000000000000000e+01,2.164019999999999833e-02,2.597592200481053330e-03
6.440000000000000568e+01,1.947180000000000091e-02,5.437718063673400125e-03
6.479999999999999716e+01,1.889580000000000079e-02,5.752644551856128836e-03
6.520000000000000284e+01,1.483760000000000114e-02,4.769157856477389441e-03
6.559999999999999432e+01,1.756279999999999994e-02,2.327067240111466671e-03
6.600000000000000000e+01,1.525199999999999820e-02,3.329496913949612971e-03
6.640000000000000568e+01,1.799919999999999992e-02,2.602681567153384504e-03
6.679999999999999716e+01,1.714859999999999995e-02,2.252202357693463847e-03
6.720000000000000284e+01,1.808320000000000066e-02,2.117411282675144175e-03
6.759999999999999432e+01,2.165420000000000192e-02,3.152417570690786534e-03
6.800000000000000000e+01,1.802999999999999742e-02,2.538304256782468026e-03
6.840000000000000568e+01,1.987159999999999968e-02,2.744126502186077822e-03
6.879999999999999716e+01,2.029460000000000292e-02,3.001264593467227199e-03
6.920000000000000284e+01,2.111160000000000120e-02,3.264142193593900718e-03
6.959999999999999432e+01,1.887259999999999979e-02,1.855262531287687772e-03
7.000000000000000000e+01,1.850840000000000124e-02,1.895838985779119308e-03
7.040000000000000568e+01,1.933720000000000230e-02,2.261697667682398098e-03
7.079999999999999716e+01,2.018819999999999990e-02,3.763042883093415097e-03
7.120000000000000284e+01,2.014379999999999990e-02,3.348495638342687247e-03
7.159999999999999432e+01,1.835840000000000388e-02,3.833779722414943237e-03
7.200000000000000000e+01,1.974340000000000123e-02,4.090791898887060143e-03
7.240000000000000568e+01,1.532919999999999769e-02,4.768541017963459985e-03
7.279999999999999716e+01,1.533800000000000094e-02,4.353462392165574103e-03
7.320000000000000284e+01,1.663440000000000057e-02,4.526682202231563715e-03
7.359999999999999432e+01,1.937660000000000077e-02,3.861112451094890919e-03
7.400000000000000000e+01,1.976839999999999847e-02,3.809482597413984921e-03
7.440000000000000568e+01,1.839999999999999969e-02,4.722659854361733849e-03
7.479999999999999716e+01,1.749619999999999995e-02,4.263110547475868102e-03
7.520000000000000284e+01,1.786880000000000066e-02,4.970668057716185265e-03
7.559999999999999432e+01,1.657779999999999671e-02,3.246309649432720882e-03
7.600000000000000000e+01,1.838860000000000147e-02,4.802235693924237700e-03
7.640000000000000568e+01,1.841639999999999944e-02,4.364739563822794301e-03
7.679999999999999716e+01,1.621900000000000078e-02,4.707493016457910649e-03
7.720000000000000284e+01,1.530400000000000163e-02,4.051180679752509201e-03
7.759999999999999432e+01,1.407759999999999914e-02,3.116103249252180803e-03
7.800000000000000000e+01,1.457299999999999915e-02,3.080940716729226210e-03
7.840000000000000568e+01,1.642199999999999910e-02,4.367509610750729826e-03
7.879999999999999716e+01,1.919500000000000026e-02,5.072645315809098249e-03
7.920000000000000284e+01,1.780479999999999910e-02,3.281100995092957589e-03
7.959999999999999432e+01,2.044059999999999974e-02,4.429567118805177207e-03
8.000000000000000000e+01,2.132479999999999792e-02,4.729119890635042657e-03
8.040000000000000568e+01,1.891340000000000382e-02,5.432532720564138204e-03
8.079999999999999716e+01,2.036980000000000041e-02,3.676700713955379819e-03
8.120000000000000284e+01,2.034159999999999788e-02,2.126013701743240721e-03
8.159999999999999432e+01,1.799540000000000167e-02,2.507971104299249691e-03
8.200000000000000000e+01,1.760319999999999940e-02,1.938099388576344697e-03
8.240000000000000568e+01,1.614499999999999963e-02,2.641435727024225681e-03
8.279999999999999716e+01,1.655900000000000080e-02,1.857090223979438121e-03
8.320000000000000284e+01,1.990619999999999890e-02,1.303954347360366563e-03
8.359999999999999432e+01,1.757479999999999806e-02,1.213289841711369214e-03
8.400000000000000000e+01,1.709519999999999790e-02,2.018826698852578712e-03
8.440000000000000568e+01,1.665620000000000295e-02,1.187846387375067567e-03
8.479999999999999716e+01,1.621919999999999959e-02,9.793923320100070967e-04
8.520000000000000284e+01,1.624139999999999959e-02,2.322011769996009355e-03
8.559999999999999432e+01,1.432680000000000065e-02,2.616512552998742809e-03
8.600000000000000000e+01,1.564720000000000000e-02,1.685596019216941115e-03
8.640000000000000568e+01,1.610620000000000107e-02,1.738489815903446981e-03
8.679999999999999716e+01,1.610860000000000070e-02,1.764610568935820337e-03
8.720000000000000284e+01,1.702739999999999809e-02,2.232151419595005369e-03
8.759999999999999432e+01,1.571499999999999980e-02,2.700193918962117377e-03
8.800000000000000000e+01,1.288100000000000009e-02,1.860036263087362467e-03
8.840000000000000568e+01,1.470580000000000151e-02,1.369620765029502200e-03
8.879999999999999716e+01,1.470580000000000151e-02,1.696515971041828979e-03
8.920000000000000284e+01,1.296579999999999955e-02,1.632891894768297245e-03
8.959999999999999432e+01,1.654579999999999940e-02,1.817904546449015338e-03
9.000000000000000000e+01,1.605619999999999964e-02,2.464431646445078023e-03
9.040000000000000568e+01,1.416999999999999857e-02,3.234903414323215837e-03
9.079999999999999716e+01,1.239879999999999802e-02,1.545598473084131789e-03
9.120000000000000284e+01,1.200340000000000087e-02,2.347947392937073472e-03
9.159999999999999432e+01,8.701200000000000948e-03,2.109141375062373661e-03
9.200000000000000000e+01,1.147300000000000056e-02,2.193525085336385950e-03
9.240000000000000568e+01,1.424880000000000070e-02,2.406465403865178706e-03
9.279999999999999716e+01,1.384199999999999840e-02,2.845267157930867884e-03
9.320000000000000284e+01,1.246559999999999856e-02,2.950330466235943656e-03
9.359999999999999432e+01,1.020379999999999898e-02,2.157643515504820142e-03
9.400000000000000000e+01,1.286440000000000153e-02,2.653748416862457358e-03
9.440000000000000568e+01,1.473220000000000085e-02,2.261186821118502284e-03
9.479999999999999716e+01,1.607480000000000020e-02,1.692636860050022269e-03
9.520000000000000284e+01,1.420379999999999907e-02,3.278051576775447857e-03
9.559999999999999432e+01,1.327719999999999942e-02,2.432564580848780005e-03
9.600000000000000000e+01,1.459880000000000032e-02,2.309458776423601537e-03
9.640000000000000568e+01,1.322059999999999902e-02,2.420279975540019866e-03
9.679999999999999716e+01,1.374020000000000276e-02,1.868130814477401503e-03
9.720000000000000284e+01,1.618259999999999837e-02,2.976124772249980673e-03
9.759999999999999432e+01,1.246180000000000031e-02,1.854112682659821675e-03
9.800000000000000000e+01,1.472499999999999851e-02,1.938823122412150187e-03
9.840000000000000568e+01,1.466099999999999869e-02,2.175802564572437963e-03
9.879999999999999716e+01,1.416440000000000234e-02,2.683932387374912947e-03
9.920000000000000284e+01,1.599820000000000061e-02,3.306624024590639616e-03
9.959999999999999432e+01,1.521639999999999972e-02,2.146711638762877593e-03
1.000000000000000000e+02,1.422000000000000000e-02,1.596942297016394618e-03
1.004000000000000057e+02,1.372639999999999971e-02,2.172647615238145358e-03
1.007999999999999972e+02,1.561519999999999922e-02,1.443099698565556300e-03
1.012000000000000028e+02,1.235260000000000004e-02,2.185853874347505176e-03
1.015999999999999943e+02,1.276859999999999974e-02,3.278987856031187042e-03
1.020000000000000000e+02,1.380960000000000000e-02,1.306262630560944696e-03
1.024000000000000057e+02,1.429300000000000015e-02,2.235281324576393960e-03
1.027999999999999972e+02,1.647920000000000287e-02,3.446802437042192479e-03
1.032000000000000028e+02,1.334940000000000085e-02,1.596470438185436510e-03
1.035999999999999943e+02,1.238919999999999952e-02,2.163604363094140219e-03
1.040000000000000000e+02,1.475200000000000122e-02,2.069015393852834464e-03
1.044000000000000057e+02,1.524940000000000150e-02,5.738829671631667795e-04
1.047999999999999972e+02,1.198480000000000031e-02,1.061601215146252717e-03
1.052000000000000028e+02,1.347959999999999783e-02,1.341670697302433995e-03
1.055999999999999943e+02,1.156299999999999863e-02,7.465305753952746360e-04
1.060000000000000000e+02,1.469619999999999781e-02,1.491908053467102396e-03
1.064000000000000057e+02,1.556379999999999916e-02,2.972850272045331112e-03
