timestep,H(t)_mean,H(t)_err
4.000000000000000222e-01,8.731951999999999492e-01,5.620914872153789585e-04
8.000000000000000444e-01,8.185218000000000771e-01,1.410860921565271469e-03
1.199999999999999956e+00,7.762925999999999993e-01,1.731221724678857089e-03
1.600000000000000089e+00,7.429388000000001213e-01,2.147007484849561797e-03
2.000000000000000000e+00,7.132806000000000424e-01,2.369317551532509891e-03
2.399999999999999911e+00,6.874609999999999888e-01,2.228495344397197434e-03
2.799999999999999822e+00,6.638424000000000547e-01,2.386093346874746529e-03
3.200000000000000178e+00,6.422920000000000851e-01,2.516417056054102725e-03
3.600000000000000089e+00,6.221889999999999921e-01,2.436611397001983790e-03
4.000000000000000000e+00,6.031788000000000149e-01,2.602790702303981255e-03
4.400000000000000355e+00,5.857082000000000122e-01,2.624170390809245964e-03
4.799999999999999822e+00,5.691102000000000105e-01,2.991793415328000260e-03
5.200000000000000178e+00,5.531787999999999705e-01,3.077356583173301591e-03
5.599999999999999645e+00,5.378819999999999713e-01,3.219840492943706976e-03
6.000000000000000000e+00,5.241198000000000246e-01,3.031721019487115289e-03
6.400000000000000355e+00,5.107191999999999288e-01,3.142277206103878499e-03
6.799999999999999822e+00,4.976778000000000590e-01,3.362282281427299725e-03
7.200000000000000178e+00,4.854766000000000359e-01,3.289573264118007476e-03
7.599999999999999645e+00,4.731417999999999457e-01,3.352257081430359397e-03
8.000000000000000000e+00,4.620370000000000310e-01,3.234116339898734146e-03
8.400000000000000355e+00,4.512018000000000417e-01,3.127777444128658317e-03
8.800000000000000711e+00,4.407557999999999754e-01,3.406387373743625761e-03
9.199999999999999289e+00,4.305927999999999978e-01,3.225023091390204037e-03
9.599999999999999645e+00,4.209834000000000076e-01,3.223615184850699839e-03
1.000000000000000000e+01,4.115961999999999676e-01,3.320511803924208402e-03
1.040000000000000036e+01,4.029331999999999914e-01,3.251719812652987141e-03
1.080000000000000071e+01,3.941787999999999959e-01,3.207049771986708944e-03
1.119999999999999929e+01,3.858362000000000736e-01,3.042660618603391150e-03
1.159999999999999964e+01,3.777275999999999967e-01,2.966746207547928636e-03
1.200000000000000000e+01,3.697640000000000371e-01,2.772815897242365997e-03
1.240000000000000036e+01,3.630411999999999528e-01,2.808264382140688003e-03
1.280000000000000071e+01,3.558371999999999646e-01,2.730863863322372832e-03
1.319999999999999929e+01,3.485842000000000107e-01,2.859889323033322755e-03
1.359999999999999964e+01,3.417116000000000042e-01,2.818622404650895918e-03
1.400000000000000000e+01,3.353987999999999969e-01,2.739068096999422268e-03
1.440000000000000036e+01,3.289122000000000434e-01,2.687981145767213715e-03
1.480000000000000071e+01,3.223524000000000389e-01,2.586728099356397619e-03
1.519999999999999929e+01,3.166924000000000405e-01,2.812450294671882574e-03
1.559999999999999964e+01,3.107043999999999917e-01,2.590028428415413250e-03
1.600000000000000000e+01,3.052377999999999481e-01,2.679285303957004965e-03
1.639999999999999858e+01,2.995709999999999762e-01,2.763920621146709160e-03
1.680000000000000071e+01,2.939813999999999483e-01,2.946305323621436698e-03
1.719999999999999929e+01,2.887967999999999646e-01,2.826704607842843529e-03
1.760000000000000142e+01,2.838015999999999872e-01,2.401874801066859570e-03
1.800000000000000000e+01,2.787334000000000200e-01,2.348329589303855408e-03
1.839999999999999858e+01,2.738489999999999536e-01,2.194592741262032642e-03
1.880000000000000071e+01,2.691674000000000011e-01,2.173956085113042374e-03
1.919999999999999929e+01,2.648295999999999983e-01,2.285715415356864583e-03
1.960000000000000142e+01,2.602977999999999681e-01,2.420984374175103818e-03
2.000000000000000000e+01,2.561255999999999533e-01,2.245681379893413408e-03
2.039999999999999858e+01,2.520797999999999650e-01,2.358242383640833922e-03
2.080000000000000071e+01,2.479191999999999785e-01,2.297146717125400205e-03
2.119999999999999929e+01,2.441737999999999964e-01,2.316826566663978022e-03
2.160000000000000142e+01,2.404033999999999893e-01,2.235463611871146665e-03
2.200000000000000000e+01,2.368084000000000022e-01,2.313792354555613013e-03
2.239999999999999858e+01,2.327594000000000052e-01,2.352138954228682327e-03
2.280000000000000071e+01,2.293390000000000151e-01,2.351886965821274166e-03
2.319999999999999929e+01,2.255542000000000102e-01,2.336664040892485594e-03
2.360000000000000142e+01,2.222071999999999936e-01,2.335337414593442306e-03
2.400000000000000000e+01,2.187936000000000047e-01,2.100403308890936519e-03
2.439999999999999858e+01,2.154248000000000274e-01,1.889816006917075094e-03
2.480000000000000071e+01,2.121989999999999710e-01,1.869101361617394848e-03
2.519999999999999929e+01,2.091270000000000073e-01,1.815636775349075988e-03
2.560000000000000142e+01,2.057293999999999790e-01,1.844073713277213011e-03
2.600000000000000000e+01,2.029506000000000088e-01,1.871539996900945663e-03
2.639999999999999858e+01,2.000281999999999893e-01,1.874589965832524491e-03
2.680000000000000071e+01,1.971938000000000024e-01,1.758894976967071691e-03
2.719999999999999929e+01,1.943545999999999885e-01,1.880271725044015043e-03
2.760000000000000142e+01,1.916665999999999648e-01,1.845870921814417439e-03
2.800000000000000000e+01,1.893063999999999858e-01,1.857523959468626758e-03
2.839999999999999858e+01,1.864796000000000231e-01,1.948797696016699946e-03
2.880000000000000071e+01,1.837813999999999837e-01,1.978317431556419776e-03
2.919999999999999929e+01,1.814372000000000207e-01,1.924701389826483609e-03
2.960000000000000142e+01,1.790570000000000217e-01,2.002186055290565946e-03
3.000000000000000000e+01,1.769344000000000194e-01,2.026163877873652340e-03
3.039999999999999858e+01,1.741024000000000183e-01,1.888214516414909788e-03
3.080000000000000071e+01,1.718618000000000090e-01,1.894300937021358528e-03
3.119999999999999929e+01,1.694448000000000065e-01,1.690306433756909223e-03
3.160000000000000142e+01,1.676628000000000007e-01,1.643628924057982752e-03
3.200000000000000000e+01,1.653678000000000092e-01,1.590834541993602514e-03
3.239999999999999858e+01,1.631859999999999977e-01,1.574004796689008326e-03
3.279999999999999716e+01,1.613216000000000094e-01,1.623254219153608428e-03
3.320000000000000284e+01,1.593247999999999887e-01,1.641571119385327885e-03
3.360000000000000142e+01,1.575499999999999956e-01,1.649088687730287375e-03
3.400000000000000000e+01,1.557785999999999893e-01,1.463612400876676458e-03
3.439999999999999858e+01,1.537910000000000110e-01,1.317167225526051991e-03
3.479999999999999716e+01,1.520026000000000155e-01,1.290847341865024919e-03
3.520000000000000284e+01,1.503066000000000124e-01,1.364387723486254304e-03
3.560000000000000142e+01,1.484975999999999796e-01,1.203784141779580975e-03
3.600000000000000000e+01,1.466447999999999918e-01,1.266205330900166707e-03
3.639999999999999858e+01,1.451807999999999987e-01,1.115837819756973839e-03
3.679999999999999716e+01,1.436466000000000132e-01,1.244808161926966219e-03
3.720000000000000284e+01,1.419208000000000136e-01,1.299023725726363397e-03
3.760000000000000142e+01,1.403974000000000055e-01,1.196732994447802364e-03
3.800000000000000000e+01,1.389943999999999902e-01,1.074977376506129623e-03
3.839999999999999858e+01,1.372876000000000096e-01,1.006435869790020792e-03
3.879999999999999716e+01,1.357153999999999860e-01,9.640680266454228469e-04
3.920000000000000284e+01,1.341075999999999935e-01,1.113296573245422215e-03
3.960000000000000142e+01,1.327853999999999979e-01,1.212085252777212905e-03
4.000000000000000000e+01,1.313418000000000085e-01,1.183733348351729804e-03
4.039999999999999858e+01,1.297497999999999985e-01,1.158872788532027027e-03
4.079999999999999716e+01,1.283413999999999944e-01,1.131140778152744161e-03
4.120000000000000284e+01,1.270536000000000165e-01,1.247026046239611786e-03
4.160000000000000142e+01,1.255432000000000214e-01,1.185628837368593287e-03
4.200000000000000000e+01,1.240201999999999971e-01,1.139166598878320032e-03
4.239999999999999858e+01,1.225837999999999789e-01,1.095146446828003167e-03
4.279999999999999716e+01,1.213502000000000053e-01,1.185147855754714163e-03
4.320000000000000284e+01,1.198785999999999879e-01,1.141432284456682985e-03
4.360000000000000142e+01,1.187515999999999988e-01,1.086159224055109488e-03
4.400000000000000000e+01,1.180122000000000115e-01,1.142881507418857037e-03
4.439999999999999858e+01,1.168445999999999929e-01,1.108761588440003096e-03
4.479999999999999716e+01,1.157119999999999954e-01,1.078796598066568196e-03
4.520000000000000284e+01,1.146056000000000019e-01,1.046063028693777026e-03
4.560000000000000142e+01,1.131337999999999927e-01,1.043114298626952093e-03
4.600000000000000000e+01,1.120910000000000101e-01,1.045382370235886302e-03
4.639999999999999858e+01,1.109643999999999908e-01,1.054350112628627467e-03
4.679999999999999716e+01,1.101075999999999999e-01,1.053864298664680503e-03
4.720000000000000284e+01,1.089975999999999862e-01,9.954544992112907952e-04
4.760000000000000142e+01,1.082885999999999987e-01,9.806514467434394693e-04
4.800000000000000000e+01,1.074524000000000035e-01,8.818788805726105991e-04
4.839999999999999858e+01,1.063784000000000118e-01,9.186493672778535359e-04
4.879999999999999716e+01,1.055895999999999918e-01,7.750846792447892066e-04
4.920000000000000284e+01,1.047102000000000033e-01,7.881715803046954096e-04
4.960000000000000142e+01,1.036961999999999884e-01,8.797448152731567224e-04
5.000000000000000000e+01,1.028499999999999970e-01,8.762853416553322570e-04
5.039999999999999858e+01,1.016749999999999876e-01,8.429380167011096782e-04
5.079999999999999716e+01,1.008669999999999983e-01,9.157623054046290815e-04
5.120000000000000284e+01,9.966579999999999884e-02,9.244258434293138984e-04
5.160000000000000142e+01,9.893880000000000730e-02,8.754775496836000089e-04
5.200000000000000000e+01,9.785860000000000392e-02,9.170150271396883658e-04
5.239999999999999858e+01,9.725699999999999623e-02,8.141073025099344234e-04
5.279999999999999716e+01,9.624660000000000160e-02,8.528231117881350130e-04
5.320000000000000284e+01,9.530059999999999920e-02,7.225768886423099670e-04
5.360000000000000142e+01,9.446380000000000055e-02,7.611673534775388909e-04
5.400000000000000000e+01,9.381280000000000174e-02,8.144061885815948336e-04
5.439999999999999858e+01,9.279139999999999611e-02,8.630491063664932601e-04
5.479999999999999716e+01,9.200880000000000170e-02,7.570045838698732715e-04
5.520000000000000284e+01,9.130659999999998777e-02,8.352585587708761042e-04
5.560000000000000142e+01,9.046560000000000712e-02,8.509214769883308117e-04
5.600000000000000000e+01,8.957040000000000834e-02,9.025116952150820555e-04
5.639999999999999858e+01,8.896360000000000379e-02,8.144548237931911521e-04
5.679999999999999716e+01,8.831120000000000636e-02,7.985895316118299088e-04
5.720000000000000284e+01,8.764440000000001119e-02,7.972582141314080422e-04
5.760000000000000142e+01,8.694780000000000564e-02,7.335909895847961618e-04
5.800000000000000000e+01,8.602560000000000762e-02,6.535306113718006640e-04
5.839999999999999858e+01,8.545040000000000968e-02,6.743093207126842721e-04
5.879999999999999716e+01,8.469540000000000401e-02,6.120756162436146331e-04
5.920000000000000284e+01,8.372899999999999787e-02,5.088928177917232754e-04
5.960000000000000142e+01,8.329219999999999680e-02,5.583651493422574306e-04
6.000000000000000000e+01,8.252079999999999138e-02,5.559517425100840744e-04
6.039999999999999858e+01,8.183939999999999271e-02,6.826672395830923803e-04
6.079999999999999716e+01,8.121819999999999040e-02,6.956602906591701982e-04
6.120000000000000284e+01,8.072920000000000096e-02,5.257416095383731511e-04
6.160000000000000142e+01,8.014240000000001640e-02,5.644140855790203857e-04
6.200000000000000000e+01,7.975659999999999694e-02,5.174667718800897475e-04
6.239999999999999858e+01,7.910000000000000364e-02,6.858084280613642317e-04
6.279999999999999716e+01,7.830619999999999248e-02,5.051571438671332692e-04
6.320000000000000284e+01,7.791760000000000352e-02,4.793190586655192973e-04
6.360000000000000142e+01,7.709019999999999762e-02,5.075743689352343619e-04
6.400000000000000000e+01,7.656659999999999855e-02,5.227700833062273516e-04
6.440000000000000568e+01,7.586360000000000325e-02,5.070341803074037302e-04
6.479999999999999716e+01,7.520780000000000520e-02,4.470405350748402323e-04
6.520000000000000284e+01,7.456840000000000690e-02,4.482063810344520758e-04
6.559999999999999432e+01,7.395900000000001084e-02,4.980872413543651267e-04
6.600000000000000000e+01,7.347839999999998539e-02,5.956094022091996303e-04
6.640000000000000568e+01,7.298119999999999608e-02,5.841141498029311799e-04
6.679999999999999716e+01,7.255499999999999450e-02,6.088165569364884433e-04
6.720000000000000284e+01,7.191640000000000532e-02,5.246230646854930678e-04
6.759999999999999432e+01,7.146040000000000725e-02,5.721779093953217356e-04
6.800000000000000000e+01,7.106880000000000142e-02,5.960438238921680161e-04
6.840000000000000568e+01,7.046159999999999923e-02,6.158913540552408842e-04
6.879999999999999716e+01,7.010299999999999865e-02,5.932762425717048047e-04
6.920000000000000284e+01,6.960840000000001471e-02,5.449590443326908637e-04
6.959999999999999432e+01,6.915740000000000776e-02,5.558910504766188506e-04
7.000000000000000000e+01,6.859659999999999369e-02,5.186704734221921206e-04
7.040000000000000568e+01,6.828680000000000860e-02,3.990299988722653549e-04
7.079999999999999716e+01,6.783140000000001391e-02,4.525364736681445482e-04
7.120000000000000284e+01,6.726419999999999622e-02,4.231327687617684368e-04
7.159999999999999432e+01,6.657340000000000479e-02,5.331948611905395260e-04
7.200000000000000000e+01,6.629820000000000157e-02,5.620730735411565192e-04
7.240000000000000568e+01,6.564399999999999402e-02,5.758556242670542910e-04
7.279999999999999716e+01,6.544239999999999780e-02,5.502321873536664349e-04
7.320000000000000284e+01,6.477079999999998949e-02,5.659662004042299898e-04
7.359999999999999432e+01,6.430679999999999730e-02,5.835453195768096606e-04
7.400000000000000000e+01,6.380959999999999410e-02,5.953483518075794803e-04
7.440000000000000568e+01,6.348339999999999539e-02,5.367520470384812238e-04
7.479999999999999716e+01,6.299680000000000557e-02,5.600368202181006628e-04
7.520000000000000284e+01,6.255800000000000249e-02,5.859358326642942786e-04
7.559999999999999432e+01,6.212679999999999592e-02,5.800652894286998078e-04
7.600000000000000000e+01,6.192180000000000600e-02,5.329089415650664890e-04
7.640000000000000568e+01,6.142659999999999787e-02,5.406041620261541883e-04
7.679999999999999716e+01,6.097339999999999705e-02,5.123265169791624014e-04
7.720000000000000284e+01,6.056019999999999459e-02,5.643059808295493871e-04
7.759999999999999432e+01,6.006659999999999083e-02,6.272161987704082207e-04
7.800000000000000000e+01,5.984000000000000430e-02,5.441877433386382683e-04
7.840000000000000568e+01,5.938099999999999629e-02,5.459272845352207762e-04
7.879999999999999716e+01,5.906400000000000539e-02,5.763661162837382035e-04
7.920000000000000284e+01,5.855239999999999057e-02,4.530471940096305055e-04
7.959999999999999432e+01,5.842460000000000708e-02,4.460136320786625632e-04
8.000000000000000000e+01,5.794839999999999713e-02,5.781056650820848731e-04
8.040000000000000568e+01,5.743319999999999675e-02,5.826431497923927755e-04
8.079999999999999716e+01,5.706559999999999411e-02,5.979296446907447727e-04
8.120000000000000284e+01,5.668559999999998877e-02,5.547485556538204630e-04
8.159999999999999432e+01,5.646320000000000505e-02,5.571688612979016275e-04
8.200000000000000000e+01,5.616159999999999902e-02,5.351860050487117692e-04
8.240000000000000568e+01,5.583459999999999812e-02,4.697818217002446917e-04
8.279999999999999716e+01,5.540180000000000105e-02,5.476464552975763818e-04
8.320000000000000284e+01,5.488200000000000023e-02,5.309483025681510345e-04
8.359999999999999432e+01,5.456079999999999958e-02,4.562851520705005193e-04
8.400000000000000000e+01,5.452400000000000302e-02,5.546032816347187767e-04
8.440000000000000568e+01,5.437880000000000491e-02,4.856094521320596753e-04
8.479999999999999716e+01,5.392319999999999058e-02,6.472771740143482087e-04
8.520000000000000284e+01,5.370440000000000630e-02,5.802513765601939946e-04
8.559999999999999432e+01,5.322879999999999973e-02,6.230575735836937738e-04
8.600000000000000000e+01,5.320539999999999992e-02,5.450363841066034479e-04
8.640000000000000568e+01,5.289519999999999639e-02,5.430841003012341081e-04
8.679999999999999716e+01,5.237640000000000351e-02,4.769958700030849509e-04
8.720000000000000284e+01,5.227659999999999252e-02,4.800327697147354451e-04
8.759999999999999432e+01,5.215340000000000253e-02,6.199932741570671636e-04
8.800000000000000000e+01,5.200339999999999824e-02,5.885762992170175340e-04
8.840000000000000568e+01,5.166079999999999284e-02,4.449994831457668967e-04
8.879999999999999716e+01,5.142519999999999036e-02,4.836697633716630757e-04
8.920000000000000284e+01,5.093119999999999592e-02,4.855835046621747230e-04
8.959999999999999432e+01,5.072900000000000326e-02,5.583164873080502478e-04
9.000000000000000000e+01,5.045979999999999910e-02,6.143438288124975248e-04
9.040000000000000568e+01,5.027620000000000700e-02,5.639476394134476179e-04
9.079999999999999716e+01,5.000960000000000821e-02,5.617166189458886556e-04
9.120000000000000284e+01,4.980199999999999905e-02,5.765730656213479115e-04
9.159999999999999432e+01,4.940639999999999615e-02,5.992241316903044752e-04
9.200000000000000000e+01,4.933800000000000685e-02,6.173535453854624416e-04
9.240000000000000568e+01,4.910960000000000325e-02,5.391272206075299958e-04
9.279999999999999716e+01,4.886820000000000053e-02,4.546238445132417009e-04
9.320000000000000284e+01,4.846920000000000395e-02,4.941302864629943444e-04
9.359999999999999432e+01,4.828299999999999953e-02,3.740526700880508456e-04
9.400000000000000000e+01,4.803400000000000031e-02,4.092728918460154623e-04
9.440000000000000568e+01,4.755260000000000042e-02,4.945257930583607346e-04
9.479999999999999716e+01,4.726500000000000840e-02,3.915003192846717561e-04
9.520000000000000284e+01,4.719380000000000103e-02,4.642498680667550537e-04
9.559999999999999432e+01,4.690079999999999943e-02,3.934619930819238296e-04
9.600000000000000000e+01,4.672379999999999589e-02,5.541701363299903621e-04
9.640000000000000568e+01,4.639260000000000606e-02,4.214207636080602340e-04
9.679999999999999716e+01,4.621299999999999714e-02,4.659105064280046104e-04
9.720000000000000284e+01,4.592020000000000129e-02,3.983752502352523529e-04
9.759999999999999432e+01,4.566740000000000382e-02,3.888974929206933306e-04
9.800000000000000000e+01,4.534180000000000155e-02,3.713687385874047905e-04
9.840000000000000568e+01,4.504319999999999852e-02,4.343167507706789362e-04
9.879999999999999716e+01,4.489619999999999722e-02,4.389237291375346637e-04
9.920000000000000284e+01,4.454220000000000401e-02,3.508769584911496965e-04
9.959999999999999432e+01,4.430399999999999616e-02,3.568501085890255485e-04
1.000000000000000000e+02,4.413259999999999406e-02,3.734550307600639513e-04
1.004000000000000057e+02,4.395079999999999820e-02,3.594493566554260249e-04
1.007999999999999972e+02,4.383800000000000197e-02,3.693885488208852302e-04
1.012000000000000028e+02,4.370420000000000554e-02,3.110913692148982858e-04
1.015999999999999943e+02,4.338979999999999920e-02,3.168872670209389058e-04
1.020000000000000000e+02,4.298860000000000181e-02,2.965733636050277679e-04
1.024000000000000057e+02,4.286500000000000032e-02,3.561717282435543429e-04
1.027999999999999972e+02,4.259199999999999792e-02,2.861578235869143699e-04
1.032000000000000028e+02,4.243879999999999875e-02,2.292979284686200451e-04
1.035999999999999943e+02,4.232879999999999976e-02,3.217011656802013582e-04
1.040000000000000000e+02,4.211640000000000522e-02,3.096413409091230734e-04
1.044000000000000057e+02,4.177319999999999645e-02,2.711216332202211936e-04
1.047999999999999972e+02,4.159319999999999684e-02,1.929236636600076282e-04
1.052000000000000028e+02,4.145779999999999604e-02,2.630553934060280720e-04
1.055999999999999943e+02,4.112760000000000027e-02,3.204163853488148860e-04
1.060000000000000000e+02,4.103199999999999903e-02,3.920915709371984082e-04
1.064000000000000057e+02,4.080179999999999918e-02,3.142184590376576091e-04
