timestep,H(t)_mean,H(t)_err
4.000000000000000222e-01,8.666342000000000212e-01,1.224898746835842824e-03
8.000000000000000444e-01,8.057448000000000388e-01,2.373620597315409270e-03
1.199999999999999956e+00,7.605459999999999443e-01,2.797639487139122211e-03
1.600000000000000089e+00,7.225456000000000101e-01,3.663770688784976758e-03
2.000000000000000000e+00,6.918461999999999668e-01,3.551043640959649327e-03
2.399999999999999911e+00,6.633799999999999697e-01,3.501288919812238498e-03
2.799999999999999822e+00,6.398580000000000378e-01,3.298264316273036810e-03
3.200000000000000178e+00,6.169757999999999631e-01,2.691848758752988548e-03
3.600000000000000089e+00,5.957632000000000483e-01,2.822739580620203716e-03
4.000000000000000000e+00,5.761453999999999187e-01,2.673164540390268566e-03
4.400000000000000355e+00,5.569876000000000271e-01,3.321321944647938774e-03
4.799999999999999822e+00,5.415486000000000466e-01,3.583723686335201809e-03
5.200000000000000178e+00,5.261646000000000933e-01,3.853703966316042364e-03
5.599999999999999645e+00,5.116043999999999592e-01,3.006978609834129370e-03
6.000000000000000000e+00,4.981571999999999667e-01,2.893291920978585587e-03
6.400000000000000355e+00,4.847870000000000235e-01,2.690446449940969882e-03
6.799999999999999822e+00,4.725354000000000498e-01,2.631744546873800682e-03
7.200000000000000178e+00,4.591536000000000506e-01,2.677603323870058130e-03
7.599999999999999645e+00,4.490014000000000505e-01,2.856094529247936269e-03
8.000000000000000000e+00,4.386952000000000074e-01,2.804098471880046416e-03
8.400000000000000355e+00,4.271625999999999479e-01,3.229506999527946131e-03
8.800000000000000711e+00,4.171741999999999950e-01,3.072145266747653564e-03
9.199999999999999289e+00,4.075376000000000554e-01,3.541112079559185968e-03
9.599999999999999645e+00,3.990512000000000503e-01,2.559113760660122142e-03
1.000000000000000000e+01,3.902309999999999390e-01,2.804624038975637740e-03
1.040000000000000036e+01,3.813396000000000008e-01,2.053418651907106852e-03
1.080000000000000071e+01,3.730228000000000432e-01,2.709626070143252019e-03
1.119999999999999929e+01,3.636598000000000330e-01,3.126925765028653291e-03
1.159999999999999964e+01,3.572761999999999882e-01,2.421327206306494052e-03
1.200000000000000000e+01,3.484760000000000080e-01,2.473104668225748013e-03
1.240000000000000036e+01,3.420955999999999997e-01,2.694789372103137317e-03
1.280000000000000071e+01,3.347723999999999700e-01,2.380324696338721995e-03
1.319999999999999929e+01,3.285992000000000357e-01,2.454167810073305898e-03
1.359999999999999964e+01,3.218271999999999800e-01,1.666035185702872739e-03
1.400000000000000000e+01,3.155390000000000139e-01,2.045035720959420805e-03
1.440000000000000036e+01,3.093404000000000709e-01,2.635689598568084074e-03
1.480000000000000071e+01,3.045179999999999554e-01,2.609292816071051048e-03
1.519999999999999929e+01,2.976082000000000449e-01,2.187328082387270719e-03
1.559999999999999964e+01,2.923272000000000093e-01,2.077602834999992334e-03
1.600000000000000000e+01,2.862969999999999682e-01,2.388542840310806190e-03
1.639999999999999858e+01,2.817774000000000112e-01,2.562339138365568418e-03
1.680000000000000071e+01,2.767070000000000363e-01,1.450246496289512178e-03
1.719999999999999929e+01,2.709329999999999794e-01,1.735896857535031059e-03
1.760000000000000142e+01,2.668693999999999789e-01,1.960235511360814212e-03
1.800000000000000000e+01,2.629922000000000093e-01,1.767815075170474284e-03
1.839999999999999858e+01,2.585651999999999395e-01,1.986839661371794363e-03
1.880000000000000071e+01,2.544830000000000148e-01,1.378563636543486508e-03
1.919999999999999929e+01,2.495232000000000006e-01,1.584961021602736709e-03
1.960000000000000142e+01,2.456726000000000187e-01,1.593122675753503919e-03
2.000000000000000000e+01,2.421292000000000166e-01,1.376446998616364650e-03
2.039999999999999858e+01,2.377446000000000004e-01,1.388938393162202165e-03
2.080000000000000071e+01,2.340311999999999948e-01,1.119286889050346298e-03
2.119999999999999929e+01,2.304158000000000039e-01,1.292566802915809778e-03
2.160000000000000142e+01,2.281055999999999917e-01,1.106426617539542486e-03
2.200000000000000000e+01,2.239618000000000164e-01,7.165269987934859506e-04
2.239999999999999858e+01,2.203261999999999998e-01,1.731279971581717054e-03
2.280000000000000071e+01,2.178292000000000006e-01,1.209344384366997215e-03
2.319999999999999929e+01,2.138231999999999911e-01,1.242985293557407602e-03
2.360000000000000142e+01,2.116213999999999873e-01,7.821615306316212924e-04
2.400000000000000000e+01,2.092518000000000156e-01,8.394541321597019136e-04
2.439999999999999858e+01,2.059537999999999924e-01,7.634014278215634722e-04
2.480000000000000071e+01,2.026499999999999968e-01,1.068356167202680644e-03
2.519999999999999929e+01,1.998085999999999751e-01,1.455640807342251227e-03
2.560000000000000142e+01,1.972215999999999969e-01,8.395701638338506608e-04
2.600000000000000000e+01,1.947928000000000159e-01,1.001048070773827596e-03
2.639999999999999858e+01,1.920831999999999817e-01,1.072480694464938468e-03
2.680000000000000071e+01,1.895249999999999990e-01,8.193301532349436724e-04
2.719999999999999929e+01,1.869831999999999883e-01,7.589178743447827849e-04
2.760000000000000142e+01,1.848501999999999923e-01,1.254864510614594510e-03
2.800000000000000000e+01,1.816321999999999937e-01,1.241648557362347608e-03
2.839999999999999858e+01,1.791851999999999889e-01,1.575251865575786345e-03
2.880000000000000071e+01,1.773634000000000044e-01,1.436364215650056926e-03
2.919999999999999929e+01,1.743699999999999695e-01,1.433750257192656190e-03
2.960000000000000142e+01,1.715821999999999903e-01,9.891718455354455396e-04
3.000000000000000000e+01,1.701302000000000092e-01,1.438953974246571198e-03
3.039999999999999858e+01,1.678046000000000260e-01,1.443656801320867709e-03
3.080000000000000071e+01,1.662669999999999981e-01,1.533089397262924663e-03
3.119999999999999929e+01,1.642627999999999866e-01,1.610707589849877993e-03
3.160000000000000142e+01,1.624974000000000141e-01,1.751547333074388816e-03
3.200000000000000000e+01,1.607263999999999915e-01,1.427920922180215494e-03
3.239999999999999858e+01,1.587141999999999997e-01,1.649454043009383449e-03
3.279999999999999716e+01,1.567405999999999799e-01,1.507773345035652839e-03
3.320000000000000284e+01,1.559445999999999888e-01,1.436648899348757797e-03
3.360000000000000142e+01,1.536854000000000275e-01,1.479849607223652965e-03
3.400000000000000000e+01,1.519332000000000182e-01,1.268921447529358301e-03
3.439999999999999858e+01,1.498558000000000112e-01,1.118351170250204193e-03
3.479999999999999716e+01,1.482143999999999961e-01,8.560353731008994585e-04
3.520000000000000284e+01,1.463617999999999864e-01,1.199890428330852238e-03
3.560000000000000142e+01,1.456194000000000099e-01,9.890834444069949039e-04
3.600000000000000000e+01,1.433598000000000094e-01,1.029889770800739403e-03
3.639999999999999858e+01,1.417765999999999749e-01,9.028773781638361378e-04
3.679999999999999716e+01,1.401878000000000013e-01,6.095335429654377950e-04
3.720000000000000284e+01,1.388513999999999859e-01,9.415653243402700295e-04
3.760000000000000142e+01,1.378174000000000066e-01,7.565232712878036843e-04
3.800000000000000000e+01,1.365871999999999920e-01,6.726903745409197480e-04
3.839999999999999858e+01,1.346797999999999884e-01,8.190527699727303407e-04
3.879999999999999716e+01,1.340727999999999920e-01,6.612705497752056558e-04
3.920000000000000284e+01,1.314145999999999925e-01,6.712225115414421992e-04
3.960000000000000142e+01,1.305854000000000181e-01,4.187039049256647627e-04
4.000000000000000000e+01,1.294504000000000210e-01,8.903602978569958833e-04
4.039999999999999858e+01,1.263703999999999661e-01,8.415228220315830324e-04
4.079999999999999716e+01,1.252482000000000040e-01,1.060676218268328088e-03
4.120000000000000284e+01,1.246942000000000050e-01,9.509092701199192699e-04
4.160000000000000142e+01,1.235233999999999915e-01,1.026034970164273674e-03
4.200000000000000000e+01,1.225416000000000005e-01,1.106540943661823853e-03
4.239999999999999858e+01,1.214736000000000010e-01,8.193479480660218481e-04
4.279999999999999716e+01,1.205791999999999975e-01,9.460878606133784913e-04
4.320000000000000284e+01,1.191269999999999829e-01,1.185125520778284626e-03
4.360000000000000142e+01,1.188327999999999884e-01,1.078603050246010938e-03
4.400000000000000000e+01,1.179346000000000005e-01,6.210735544200869694e-04
4.439999999999999858e+01,1.174778000000000072e-01,7.564811564077469257e-04
4.479999999999999716e+01,1.159676000000000179e-01,6.277832109892724161e-04
4.520000000000000284e+01,1.148801999999999879e-01,6.731427337496849808e-04
4.560000000000000142e+01,1.136213999999999835e-01,3.370288711668476033e-04
4.600000000000000000e+01,1.137132000000000004e-01,6.480125307430409896e-04
4.639999999999999858e+01,1.123599999999999877e-01,1.012172267946517823e-03
4.679999999999999716e+01,1.106603999999999921e-01,1.051124521643370061e-03
4.720000000000000284e+01,1.097220000000000140e-01,7.361717870171344963e-04
4.760000000000000142e+01,1.089437999999999934e-01,9.105644073869804782e-04
4.800000000000000000e+01,1.075129999999999975e-01,5.552972177131826120e-04
4.839999999999999858e+01,1.064036000000000010e-01,2.618200909021293674e-04
4.879999999999999716e+01,1.063330000000000108e-01,5.238961729197885546e-04
4.920000000000000284e+01,1.047834000000000126e-01,3.151927346878430607e-04
4.960000000000000142e+01,1.040308000000000066e-01,4.032694384651547997e-04
5.000000000000000000e+01,1.032572000000000073e-01,4.183442840532192782e-04
5.039999999999999858e+01,1.023212000000000010e-01,3.672270959501768126e-04
5.079999999999999716e+01,1.021497999999999989e-01,4.801613687084807383e-04
5.120000000000000284e+01,1.007940000000000086e-01,7.879401627027274790e-04
5.160000000000000142e+01,1.001968000000000025e-01,5.256142501873394728e-04
5.200000000000000000e+01,9.995819999999999705e-02,4.180603305744268736e-04
5.239999999999999858e+01,9.871199999999999419e-02,5.103465489253361303e-04
5.279999999999999716e+01,9.726079999999999448e-02,4.525332473973591352e-04
5.320000000000000284e+01,9.690360000000000640e-02,5.136008761674764776e-04
5.360000000000000142e+01,9.562160000000000104e-02,4.319023732280264055e-04
5.400000000000000000e+01,9.491559999999998887e-02,4.678764366796008900e-04
5.439999999999999858e+01,9.441239999999999355e-02,8.564293666146667074e-04
5.479999999999999716e+01,9.392579999999998985e-02,5.242447329253776059e-04
5.520000000000000284e+01,9.276639999999999886e-02,5.937010695627899627e-04
5.560000000000000142e+01,9.212660000000000293e-02,5.191293287804094828e-04
5.600000000000000000e+01,9.097940000000000194e-02,7.160993366845118564e-04
5.639999999999999858e+01,9.036960000000000826e-02,4.577716242844251989e-04
5.679999999999999716e+01,8.934699999999999587e-02,5.630390750205536672e-04
5.720000000000000284e+01,8.882740000000000080e-02,3.122807390794380702e-04
5.760000000000000142e+01,8.861520000000000508e-02,5.247725602582515312e-04
5.800000000000000000e+01,8.847460000000000047e-02,5.526247008594529792e-04
5.839999999999999858e+01,8.767019999999998980e-02,5.387796766768407266e-04
5.879999999999999716e+01,8.755419999999999869e-02,4.123167956802151570e-04
5.920000000000000284e+01,8.653120000000000256e-02,8.797125894290704897e-04
5.960000000000000142e+01,8.632700000000001483e-02,9.595182124378888108e-04
6.000000000000000000e+01,8.598300000000000387e-02,8.182872967362988430e-04
6.039999999999999858e+01,8.512179999999999747e-02,6.264034961588277675e-04
6.079999999999999716e+01,8.359000000000001152e-02,5.943895187501206222e-04
6.120000000000000284e+01,8.270240000000000924e-02,6.701905400705099932e-04
6.160000000000000142e+01,8.223060000000000092e-02,8.626011592851002500e-04
6.200000000000000000e+01,8.132399999999999352e-02,8.524024284338947407e-04
6.239999999999999858e+01,8.061480000000001422e-02,4.406193822336921845e-04
6.279999999999999716e+01,8.010780000000000678e-02,4.492202577800780573e-04
6.320000000000000284e+01,7.972920000000000007e-02,5.132440355230645729e-04
6.360000000000000142e+01,7.882299999999999029e-02,7.091054223456463249e-04
6.400000000000000000e+01,7.860659999999999870e-02,8.347213666847171695e-04
6.440000000000000568e+01,7.835800000000001098e-02,5.961311936142927453e-04
6.479999999999999716e+01,7.739139999999999908e-02,5.186107017792833092e-04
6.520000000000000284e+01,7.742060000000000608e-02,5.957790362206448129e-04
6.559999999999999432e+01,7.597519999999999274e-02,2.399750820397802888e-04
6.600000000000000000e+01,7.539180000000000881e-02,4.888720077893604155e-04
6.640000000000000568e+01,7.530840000000001144e-02,4.836436291320286092e-04
6.679999999999999716e+01,7.410520000000000995e-02,4.740240922147330557e-04
6.720000000000000284e+01,7.349319999999999464e-02,5.678835620089742273e-04
6.759999999999999432e+01,7.306779999999998831e-02,6.062907223436644812e-04
6.800000000000000000e+01,7.238899999999999502e-02,6.186442434873228686e-04
6.840000000000000568e+01,7.142760000000000775e-02,7.193145765240696729e-04
6.879999999999999716e+01,7.093540000000000956e-02,7.364512611164421079e-04
6.920000000000000284e+01,7.053139999999999410e-02,9.074341078006708822e-04
6.959999999999999432e+01,7.051419999999999910e-02,6.802699023181904905e-04
7.000000000000000000e+01,7.070640000000000258e-02,7.020850803143465066e-04
7.040000000000000568e+01,7.018959999999999089e-02,5.302924287598301820e-04
7.079999999999999716e+01,6.969359999999999444e-02,5.723369287404055485e-04
7.120000000000000284e+01,6.931899999999999173e-02,6.795705997172052587e-04
7.159999999999999432e+01,6.873759999999999593e-02,8.749286028013944895e-04
7.200000000000000000e+01,6.883320000000001104e-02,7.432639100615614581e-04
7.240000000000000568e+01,6.851179999999999770e-02,7.128278473797170379e-04
7.279999999999999716e+01,6.832459999999999922e-02,1.014518536055403902e-03
7.320000000000000284e+01,6.747299999999999132e-02,5.929316149439154424e-04
7.359999999999999432e+01,6.739559999999999995e-02,6.610248558110349594e-04
7.400000000000000000e+01,6.666239999999998278e-02,5.388845516434852311e-04
7.440000000000000568e+01,6.640500000000000569e-02,5.083318797793423636e-04
7.479999999999999716e+01,6.622500000000000608e-02,4.486226699577279954e-04
7.520000000000000284e+01,6.560860000000000303e-02,6.366489299449092391e-04
7.559999999999999432e+01,6.539679999999999105e-02,3.919675241649488140e-04
7.600000000000000000e+01,6.487020000000000286e-02,4.262275683247174164e-04
7.640000000000000568e+01,6.481400000000001049e-02,6.889904934032114103e-04
7.679999999999999716e+01,6.377859999999999085e-02,6.820421247987549888e-04
7.720000000000000284e+01,6.356119999999999826e-02,5.713082705510211202e-04
7.759999999999999432e+01,6.356919999999999238e-02,6.194334023928635673e-04
7.800000000000000000e+01,6.348700000000000176e-02,4.522101281484076658e-04
7.840000000000000568e+01,6.324779999999999291e-02,4.744687977096079755e-04
7.879999999999999716e+01,6.217479999999999535e-02,1.104189295365603390e-04
7.920000000000000284e+01,6.179740000000000233e-02,3.190312837324884069e-04
7.959999999999999432e+01,6.159639999999999560e-02,5.825548557861312971e-04
8.000000000000000000e+01,6.132879999999999582e-02,7.525188635509398290e-04
8.040000000000000568e+01,6.051179999999999060e-02,6.689636312984441422e-04
8.079999999999999716e+01,6.032980000000000287e-02,6.716296151898014204e-04
8.120000000000000284e+01,6.015899999999999720e-02,8.952069034586359816e-04
8.159999999999999432e+01,6.036200000000000593e-02,7.391158231292312662e-04
8.200000000000000000e+01,5.948599999999999721e-02,6.072695447657485866e-04
8.240000000000000568e+01,5.937019999999999798e-02,5.649502101955530646e-04
8.279999999999999716e+01,5.924460000000000143e-02,6.109687880734977717e-04
8.320000000000000284e+01,5.895179999999999865e-02,5.616358606784283740e-04
8.359999999999999432e+01,5.888859999999999928e-02,5.436793724245939140e-04
8.400000000000000000e+01,5.887420000000000153e-02,5.742110587580142233e-04
8.440000000000000568e+01,5.825199999999999129e-02,4.814023265419471514e-04
8.479999999999999716e+01,5.836460000000000259e-02,3.146716701579597075e-04
8.520000000000000284e+01,5.755700000000000399e-02,4.628946964483395812e-04
8.559999999999999432e+01,5.765699999999999992e-02,5.534975158029167798e-04
8.600000000000000000e+01,5.736539999999999695e-02,5.663256660261829995e-04
8.640000000000000568e+01,5.778039999999999565e-02,4.404070389991512121e-04
8.679999999999999716e+01,5.739079999999999876e-02,5.107398946626350630e-04
8.720000000000000284e+01,5.722800000000000109e-02,2.731872983870228659e-04
8.759999999999999432e+01,5.667660000000000059e-02,4.400368848176255130e-04
8.800000000000000000e+01,5.624819999999999126e-02,4.638731938795349397e-04
8.840000000000000568e+01,5.572880000000000195e-02,4.077223810388630704e-04
8.879999999999999716e+01,5.555039999999999978e-02,4.478590849809786301e-04
8.920000000000000284e+01,5.557180000000000453e-02,5.559702689892689334e-04
8.959999999999999432e+01,5.462100000000000982e-02,4.969011974225855544e-04
9.000000000000000000e+01,5.460879999999999901e-02,4.966255531081737330e-04
9.040000000000000568e+01,5.429080000000000711e-02,5.620680919603960983e-04
9.079999999999999716e+01,5.405959999999999932e-02,6.979708876450368060e-04
9.120000000000000284e+01,5.420460000000000556e-02,7.358039548684147408e-04
9.159999999999999432e+01,5.394960000000000033e-02,5.041394251593508870e-04
9.200000000000000000e+01,5.371040000000000536e-02,6.675030037385593302e-04
9.240000000000000568e+01,5.347140000000000226e-02,5.564927313092234758e-04
9.279999999999999716e+01,5.287379999999999164e-02,5.740815621494913933e-04
9.320000000000000284e+01,5.272339999999999666e-02,6.223226333663271813e-04
9.359999999999999432e+01,5.259239999999999748e-02,7.245962047927109869e-04
9.400000000000000000e+01,5.257599999999999774e-02,4.981860094382420346e-04
9.440000000000000568e+01,5.234439999999999926e-02,6.876070534833102470e-04
9.479999999999999716e+01,5.192559999999999537e-02,8.327433338070019432e-04
9.520000000000000284e+01,5.141420000000000018e-02,6.732359467526962066e-04
9.559999999999999432e+01,5.087159999999999599e-02,5.677827577515896307e-04
9.600000000000000000e+01,5.024599999999999900e-02,4.769777772601140292e-04
9.640000000000000568e+01,5.031299999999999661e-02,4.254371869030724182e-04
9.679999999999999716e+01,4.970780000000000337e-02,5.294073478900724033e-04
9.720000000000000284e+01,4.929660000000000292e-02,5.501773895753991764e-04
9.759999999999999432e+01,4.946079999999999921e-02,7.648267385493274064e-04
9.800000000000000000e+01,4.925819999999999504e-02,4.835383542181539854e-04
9.840000000000000568e+01,4.929360000000000686e-02,6.221409486603494705e-04
9.879999999999999716e+01,4.898439999999999739e-02,8.152000736015667642e-04
9.920000000000000284e+01,4.923059999999999936e-02,6.284429647947382394e-04
9.959999999999999432e+01,4.920419999999999655e-02,5.449721460772101282e-04
1.000000000000000000e+02,4.885679999999999884e-02,3.845054485959854915e-04
1.004000000000000057e+02,4.861700000000000049e-02,5.857931375494252260e-04
1.007999999999999972e+02,4.862959999999999505e-02,4.599098389902080272e-04
1.012000000000000028e+02,4.833479999999999721e-02,5.320882821487426346e-04
1.015999999999999943e+02,4.809860000000000524e-02,3.875751023995216708e-04
1.020000000000000000e+02,4.766879999999999729e-02,4.836706937576429224e-04
1.024000000000000057e+02,4.786019999999999858e-02,2.887361078909248132e-04
1.027999999999999972e+02,4.758300000000000030e-02,3.436920132909700924e-04
1.032000000000000028e+02,4.722180000000000127e-02,4.355146840233971870e-04
1.035999999999999943e+02,4.703000000000000236e-02,5.713053474281505183e-04
1.040000000000000000e+02,4.675139999999999851e-02,5.884883686191257502e-04
1.044000000000000057e+02,4.634900000000000131e-02,5.288804212674157179e-04
1.047999999999999972e+02,4.629499999999999588e-02,5.256029870539172385e-04
1.052000000000000028e+02,4.620660000000000045e-02,4.370625355712847468e-04
1.055999999999999943e+02,4.543640000000000179e-02,4.345852735655004128e-04
1.060000000000000000e+02,4.567659999999999776e-02,5.592912121605336708e-04
1.064000000000000057e+02,4.550939999999999153e-02,4.274534594549442529e-04
