timestep,H(t)_mean,H(t)_err
4.000000000000000222e-01,8.717021999999999826e-01,5.700574006185709849e-04
8.000000000000000444e-01,8.154201999999999284e-01,9.003301283418184767e-04
1.199999999999999956e+00,7.729298000000000002e-01,1.380411800876819514e-03
1.600000000000000089e+00,7.392497999999999569e-01,1.630440903559528991e-03
2.000000000000000000e+00,7.100991999999999305e-01,1.665849885193749309e-03
2.399999999999999911e+00,6.828170000000000073e-01,1.541027092558723641e-03
2.799999999999999822e+00,6.589552000000000742e-01,1.915778259611467232e-03
3.200000000000000178e+00,6.372025999999999524e-01,2.011279209856246461e-03
3.600000000000000089e+00,6.172329999999999206e-01,2.372543571781127181e-03
4.000000000000000000e+00,5.976835999999999816e-01,2.364241370926403740e-03
4.400000000000000355e+00,5.802888000000000490e-01,2.313608380863116203e-03
4.799999999999999822e+00,5.637018000000000306e-01,2.405753507739308555e-03
5.200000000000000178e+00,5.475175999999999377e-01,2.405316623648541888e-03
5.599999999999999645e+00,5.323475999999999209e-01,2.437669514105629109e-03
6.000000000000000000e+00,5.186393999999999727e-01,2.406750311104164600e-03
6.400000000000000355e+00,5.054583999999999744e-01,2.081789052714020771e-03
6.799999999999999822e+00,4.922620000000000329e-01,2.206236184092725313e-03
7.200000000000000178e+00,4.806793999999999789e-01,2.183717669480189118e-03
7.599999999999999645e+00,4.686687999999999965e-01,2.404990486467666142e-03
8.000000000000000000e+00,4.570059999999999678e-01,2.408309033326084050e-03
8.400000000000000355e+00,4.459533999999999443e-01,2.530086038062734355e-03
8.800000000000000711e+00,4.365586000000000189e-01,2.413245462028271171e-03
9.199999999999999289e+00,4.266378000000000670e-01,2.366106578326514914e-03
9.599999999999999645e+00,4.169127999999999723e-01,2.242783056829168037e-03
1.000000000000000000e+01,4.074951999999999463e-01,2.226017686362797166e-03
1.040000000000000036e+01,3.988369999999999971e-01,2.634036009624770355e-03
1.080000000000000071e+01,3.899929999999999231e-01,2.476406004676940699e-03
1.119999999999999929e+01,3.813651999999999598e-01,2.338532347435030769e-03
1.159999999999999964e+01,3.739540000000000086e-01,2.193063542171083506e-03
1.200000000000000000e+01,3.668000000000000149e-01,2.233955751576114420e-03
1.240000000000000036e+01,3.583960000000000479e-01,2.075009204798860651e-03
1.280000000000000071e+01,3.512883999999999451e-01,2.084428833037962545e-03
1.319999999999999929e+01,3.441710000000000047e-01,2.058950436508857201e-03
1.359999999999999964e+01,3.373176000000000507e-01,2.173996931920550799e-03
1.400000000000000000e+01,3.309575999999999629e-01,2.055657622270792417e-03
1.440000000000000036e+01,3.246191999999999966e-01,2.392677462592902090e-03
1.480000000000000071e+01,3.181816000000000644e-01,2.245706583683634502e-03
1.519999999999999929e+01,3.123480000000000145e-01,2.320433041481701104e-03
1.559999999999999964e+01,3.063190000000000079e-01,2.150173853436042337e-03
1.600000000000000000e+01,3.005362000000000311e-01,2.017274433486919427e-03
1.639999999999999858e+01,2.950608000000000120e-01,2.008020951085922375e-03
1.680000000000000071e+01,2.900455999999999590e-01,1.856995223472594336e-03
1.719999999999999929e+01,2.848903999999999881e-01,1.872296306677976490e-03
1.760000000000000142e+01,2.797002000000000099e-01,1.904058439229216722e-03
1.800000000000000000e+01,2.753628000000000187e-01,2.115534079139349231e-03
1.839999999999999858e+01,2.707533999999999774e-01,1.929718544244214120e-03
1.880000000000000071e+01,2.656522000000000050e-01,2.030663005030618976e-03
1.919999999999999929e+01,2.617059999999999387e-01,2.204965147116849655e-03
1.960000000000000142e+01,2.571655999999999942e-01,2.000534993445505106e-03
2.000000000000000000e+01,2.521171999999999858e-01,1.820787999740774901e-03
2.039999999999999858e+01,2.482719999999999927e-01,1.879382398555442309e-03
2.080000000000000071e+01,2.446848000000000078e-01,1.957413175596816029e-03
2.119999999999999929e+01,2.405187999999999771e-01,1.952845856692229237e-03
2.160000000000000142e+01,2.367446000000000272e-01,1.872533086490066638e-03
2.200000000000000000e+01,2.329173999999999967e-01,1.773369803509690541e-03
2.239999999999999858e+01,2.295367999999999853e-01,1.681089718010315027e-03
2.280000000000000071e+01,2.254103999999999830e-01,1.628371474817706405e-03
2.319999999999999929e+01,2.219984000000000124e-01,1.679575559479240705e-03
2.360000000000000142e+01,2.190420000000000145e-01,1.716396894660441458e-03
2.400000000000000000e+01,2.158251999999999948e-01,1.685578161937321918e-03
2.439999999999999858e+01,2.132272000000000056e-01,1.703274152918427117e-03
2.480000000000000071e+01,2.097649999999999793e-01,1.710752027618260172e-03
2.519999999999999929e+01,2.069167999999999841e-01,1.762411966595776695e-03
2.560000000000000142e+01,2.039865999999999902e-01,1.588766049486205201e-03
2.600000000000000000e+01,2.012277999999999845e-01,1.680634505179519605e-03
2.639999999999999858e+01,1.982816000000000023e-01,1.403388777210360944e-03
2.680000000000000071e+01,1.957728000000000246e-01,1.289918656350082498e-03
2.719999999999999929e+01,1.925343999999999667e-01,1.065031764784508646e-03
2.760000000000000142e+01,1.902022000000000157e-01,1.166392704023819964e-03
2.800000000000000000e+01,1.872041999999999873e-01,1.255208126168723968e-03
2.839999999999999858e+01,1.848101999999999800e-01,1.304134402582800842e-03
2.880000000000000071e+01,1.822623999999999911e-01,1.256701977399571910e-03
2.919999999999999929e+01,1.799920000000000131e-01,1.158450732659787761e-03
2.960000000000000142e+01,1.780049999999999966e-01,1.206035364323950832e-03
3.000000000000000000e+01,1.752035999999999871e-01,9.828711309220539757e-04
3.039999999999999858e+01,1.728599999999999859e-01,1.061894580455137373e-03
3.080000000000000071e+01,1.701396000000000019e-01,1.047704089903250639e-03
3.119999999999999929e+01,1.677800000000000125e-01,1.159908573983310827e-03
3.160000000000000142e+01,1.658586000000000227e-01,1.032847549254001804e-03
3.200000000000000000e+01,1.638930000000000109e-01,1.079761455137196423e-03
3.239999999999999858e+01,1.617008000000000056e-01,1.078271969402895851e-03
3.279999999999999716e+01,1.602176000000000156e-01,9.786421000549728241e-04
3.320000000000000284e+01,1.580827999999999955e-01,9.401959051176549858e-04
3.360000000000000142e+01,1.559791999999999845e-01,1.061321789091319249e-03
3.400000000000000000e+01,1.542228000000000210e-01,9.955257103661347643e-04
3.439999999999999858e+01,1.522285999999999917e-01,7.914834552913909034e-04
3.479999999999999716e+01,1.502102000000000159e-01,8.832510628354777512e-04
3.520000000000000284e+01,1.489446000000000103e-01,8.114865741341597454e-04
3.560000000000000142e+01,1.465437999999999741e-01,7.267044378562710974e-04
3.600000000000000000e+01,1.450531999999999933e-01,9.409573529124499926e-04
3.639999999999999858e+01,1.434139999999999859e-01,9.117343363063601294e-04
3.679999999999999716e+01,1.414719999999999867e-01,9.595466637949389690e-04
3.720000000000000284e+01,1.399521999999999988e-01,7.682610493836035523e-04
3.760000000000000142e+01,1.384567999999999910e-01,7.722436403104942278e-04
3.800000000000000000e+01,1.368926000000000032e-01,1.046022686178460590e-03
3.839999999999999858e+01,1.350679999999999936e-01,8.041122434088413158e-04
3.879999999999999716e+01,1.336693999999999938e-01,8.079172358602089779e-04
3.920000000000000284e+01,1.323456000000000077e-01,1.063107266459975596e-03
3.960000000000000142e+01,1.304729999999999779e-01,9.639210548587489073e-04
4.000000000000000000e+01,1.292920000000000180e-01,1.155750621890378480e-03
4.039999999999999858e+01,1.275381999999999905e-01,1.080729170514057843e-03
4.079999999999999716e+01,1.262964000000000309e-01,1.304052015833722126e-03
4.120000000000000284e+01,1.244849999999999984e-01,1.279378481920028909e-03
4.160000000000000142e+01,1.233926000000000051e-01,1.216950763178197784e-03
4.200000000000000000e+01,1.221521999999999747e-01,1.129678246227657683e-03
4.239999999999999858e+01,1.207734000000000030e-01,1.010545624897758819e-03
4.279999999999999716e+01,1.197544000000000108e-01,1.027157904121853019e-03
4.320000000000000284e+01,1.185274000000000189e-01,1.211901835958671030e-03
4.360000000000000142e+01,1.175864000000000076e-01,1.142692110763000824e-03
4.400000000000000000e+01,1.164701999999999960e-01,1.152180341786822847e-03
4.439999999999999858e+01,1.154540000000000149e-01,1.138905571151533789e-03
4.479999999999999716e+01,1.144318000000000002e-01,1.207651539145295373e-03
4.520000000000000284e+01,1.133321999999999941e-01,1.076096993769614252e-03
4.560000000000000142e+01,1.118838000000000055e-01,1.130114303953365937e-03
4.600000000000000000e+01,1.112733999999999945e-01,1.058668153861254922e-03
4.639999999999999858e+01,1.103278000000000036e-01,1.039549777547954914e-03
4.679999999999999716e+01,1.094157999999999936e-01,1.052251747444496845e-03
4.720000000000000284e+01,1.080772000000000121e-01,8.358632304390466996e-04
4.760000000000000142e+01,1.072387999999999952e-01,7.801773772675031074e-04
4.800000000000000000e+01,1.064256000000000091e-01,7.893662394604916959e-04
4.839999999999999858e+01,1.054284000000000054e-01,8.009514092627586070e-04
4.879999999999999716e+01,1.047786000000000134e-01,5.689198186036414483e-04
4.920000000000000284e+01,1.040551999999999866e-01,6.599939696694215752e-04
4.960000000000000142e+01,1.028804000000000107e-01,6.190544887164621144e-04
5.000000000000000000e+01,1.013687999999999950e-01,6.358147843515447135e-04
5.039999999999999858e+01,1.008232000000000017e-01,6.690424799667052782e-04
5.079999999999999716e+01,9.979679999999999107e-02,7.254930323579968305e-04
5.120000000000000284e+01,9.895899999999999141e-02,5.881534663674093224e-04
5.160000000000000142e+01,9.810040000000000426e-02,6.107342793719710162e-04
5.200000000000000000e+01,9.734059999999999935e-02,7.385348739226882311e-04
5.239999999999999858e+01,9.668820000000000192e-02,6.674247073640587240e-04
5.279999999999999716e+01,9.578019999999999590e-02,6.252939628686652977e-04
5.320000000000000284e+01,9.481019999999999726e-02,6.312752489999899413e-04
5.360000000000000142e+01,9.407019999999999271e-02,6.146714081523554571e-04
5.400000000000000000e+01,9.313899999999999957e-02,5.996625717851658110e-04
5.439999999999999858e+01,9.224659999999999804e-02,7.914490886974350891e-04
5.479999999999999716e+01,9.146340000000001413e-02,7.612436272311257513e-04
5.520000000000000284e+01,9.059120000000001061e-02,7.503460135164321566e-04
5.560000000000000142e+01,8.969199999999999395e-02,7.789933889321520692e-04
5.600000000000000000e+01,8.915480000000000627e-02,8.327347356751712941e-04
5.639999999999999858e+01,8.866499999999999382e-02,6.400387488269753625e-04
5.679999999999999716e+01,8.779460000000000042e-02,5.592823616027961303e-04
5.720000000000000284e+01,8.719920000000000448e-02,5.403841596494105351e-04
5.760000000000000142e+01,8.672920000000000629e-02,5.090793061989457111e-04
5.800000000000000000e+01,8.607900000000000273e-02,5.555495477452917401e-04
5.839999999999999858e+01,8.543100000000000693e-02,4.885661674737620287e-04
5.879999999999999716e+01,8.480760000000001075e-02,6.339517805006945677e-04
5.920000000000000284e+01,8.414199999999999458e-02,4.664065822863134518e-04
5.960000000000000142e+01,8.336920000000000441e-02,6.392762626595792363e-04
6.000000000000000000e+01,8.272859999999999936e-02,7.234324156408810692e-04
6.039999999999999858e+01,8.208419999999999606e-02,7.715130199808696446e-04
6.079999999999999716e+01,8.124059999999999615e-02,8.546342843579340671e-04
6.120000000000000284e+01,8.058040000000001035e-02,6.711037624689652863e-04
6.160000000000000142e+01,7.986240000000000006e-02,8.466964981621231782e-04
6.200000000000000000e+01,7.940899999999999348e-02,8.839956447856516788e-04
6.239999999999999858e+01,7.859839999999999882e-02,8.309592408776743985e-04
6.279999999999999716e+01,7.783139999999999503e-02,8.898577751528611440e-04
6.320000000000000284e+01,7.749059999999999282e-02,7.827538949120605447e-04
6.360000000000000142e+01,7.672519999999999341e-02,9.008090474678868542e-04
6.400000000000000000e+01,7.616799999999998572e-02,9.057492478605775124e-04
6.440000000000000568e+01,7.583120000000001526e-02,8.699061098762321791e-04
6.479999999999999716e+01,7.514840000000000408e-02,9.914932475816452644e-04
6.520000000000000284e+01,7.452600000000000890e-02,8.453784359681756596e-04
6.559999999999999432e+01,7.399940000000000684e-02,7.504542357799050484e-04
6.600000000000000000e+01,7.351219999999999977e-02,8.155969225052293534e-04
6.640000000000000568e+01,7.317700000000000593e-02,7.886946811028955947e-04
6.679999999999999716e+01,7.235360000000000402e-02,7.246095224325999756e-04
6.720000000000000284e+01,7.192600000000000382e-02,6.182107245915417207e-04
6.759999999999999432e+01,7.151820000000000399e-02,6.276210958850897718e-04
6.800000000000000000e+01,7.104580000000000617e-02,5.320036090103165373e-04
6.840000000000000568e+01,7.062460000000000959e-02,5.251782173700639570e-04
6.879999999999999716e+01,7.053460000000000285e-02,5.165518947792190020e-04
6.920000000000000284e+01,6.981859999999999455e-02,5.373500348934569628e-04
6.959999999999999432e+01,6.959940000000000571e-02,5.395320750428109517e-04
7.000000000000000000e+01,6.913500000000000201e-02,4.332412722721607715e-04
7.040000000000000568e+01,6.874220000000000330e-02,5.542930091567081340e-04
7.079999999999999716e+01,6.805740000000000400e-02,3.765371960377888430e-04
7.120000000000000284e+01,6.790859999999999952e-02,3.436845355845961208e-04
7.159999999999999432e+01,6.715699999999999448e-02,4.154477103078081722e-04
7.200000000000000000e+01,6.672260000000000690e-02,3.264044423717284149e-04
7.240000000000000568e+01,6.609639999999999960e-02,3.786326187744521441e-04
7.279999999999999716e+01,6.578760000000000163e-02,2.727490788252083780e-04
7.320000000000000284e+01,6.517100000000000670e-02,2.468130871732684647e-04
7.359999999999999432e+01,6.479699999999999349e-02,4.809248382023963587e-04
7.400000000000000000e+01,6.433619999999999617e-02,3.579672331373354426e-04
7.440000000000000568e+01,6.395120000000001359e-02,3.247462701864319815e-04
7.479999999999999716e+01,6.358899999999999275e-02,3.973823096213525887e-04
7.520000000000000284e+01,6.328399999999999304e-02,5.273305415012486883e-04
7.559999999999999432e+01,6.277699999999999947e-02,5.612157339205667891e-04
7.600000000000000000e+01,6.273420000000000385e-02,4.966277680516871648e-04
7.640000000000000568e+01,6.228359999999999452e-02,5.324490210339391820e-04
7.679999999999999716e+01,6.189139999999999919e-02,5.712756427505030982e-04
7.720000000000000284e+01,6.149759999999999949e-02,4.114555383027424114e-04
7.759999999999999432e+01,6.127439999999999276e-02,3.826533156788269343e-04
7.800000000000000000e+01,6.078740000000000532e-02,3.619031085801841852e-04
7.840000000000000568e+01,6.035120000000000762e-02,3.976324181954994197e-04
7.879999999999999716e+01,6.001240000000000047e-02,3.487036850966735227e-04
7.920000000000000284e+01,5.964139999999999719e-02,4.508470472344253436e-04
7.959999999999999432e+01,5.907420000000000032e-02,3.702052673855410329e-04
8.000000000000000000e+01,5.881739999999999885e-02,4.138556028375113831e-04
8.040000000000000568e+01,5.835400000000000309e-02,2.306267547358715889e-04
8.079999999999999716e+01,5.778200000000000003e-02,2.544521566031624133e-04
8.120000000000000284e+01,5.735459999999999864e-02,3.569911203377474957e-04
8.159999999999999432e+01,5.695039999999999825e-02,3.178462836026247750e-04
8.200000000000000000e+01,5.670700000000000740e-02,3.307146806538833182e-04
8.240000000000000568e+01,5.626560000000000589e-02,2.569740453820195769e-04
8.279999999999999716e+01,5.589579999999999549e-02,3.770222009378222856e-04
8.320000000000000284e+01,5.550680000000000197e-02,3.562919308656877621e-04
8.359999999999999432e+01,5.530220000000000274e-02,4.659881328961081514e-04
8.400000000000000000e+01,5.492620000000000141e-02,4.460731330174459177e-04
8.440000000000000568e+01,5.476600000000000218e-02,4.967301078050333695e-04
8.479999999999999716e+01,5.452399999999999608e-02,5.101300814498204361e-04
8.520000000000000284e+01,5.415020000000000250e-02,5.327935247354273571e-04
8.559999999999999432e+01,5.371360000000000717e-02,4.869922586653714592e-04
8.600000000000000000e+01,5.355439999999998812e-02,3.908872727526445530e-04
8.640000000000000568e+01,5.308500000000000718e-02,3.445993325588428348e-04
8.679999999999999716e+01,5.273779999999998747e-02,3.659249103299741642e-04
8.720000000000000284e+01,5.241900000000000726e-02,3.396561496572678357e-04
8.759999999999999432e+01,5.212819999999999954e-02,2.524694833044181992e-04
8.800000000000000000e+01,5.197859999999999980e-02,2.698244985170912655e-04
8.840000000000000568e+01,5.136519999999999975e-02,3.026827381929799148e-04
8.879999999999999716e+01,5.137199999999999406e-02,2.773171469635442137e-04
8.920000000000000284e+01,5.126479999999999926e-02,2.539760618641056849e-04
8.959999999999999432e+01,5.103400000000000297e-02,1.537761359899515311e-04
9.000000000000000000e+01,5.051600000000000534e-02,1.207360758017254014e-04
9.040000000000000568e+01,5.042380000000000473e-02,1.436225609018305309e-04
9.079999999999999716e+01,5.017420000000000213e-02,1.704049295061620388e-04
9.120000000000000284e+01,4.986420000000000435e-02,1.239231213293141484e-04
9.159999999999999432e+01,4.988159999999999816e-02,1.934429114751948762e-04
9.200000000000000000e+01,4.971620000000000206e-02,2.509167989593367944e-04
9.240000000000000568e+01,4.918619999999999937e-02,1.552351120075611175e-04
9.279999999999999716e+01,4.889060000000000628e-02,3.087180914685753162e-04
9.320000000000000284e+01,4.870739999999999792e-02,3.500572238934662392e-04
9.359999999999999432e+01,4.852760000000000407e-02,1.228407912706522276e-04
9.400000000000000000e+01,4.802660000000000262e-02,1.504478647239633103e-04
9.440000000000000568e+01,4.785279999999999395e-02,1.470521676140817404e-04
9.479999999999999716e+01,4.772120000000000528e-02,1.024233371844522665e-04
9.520000000000000284e+01,4.744540000000000562e-02,9.148256664523598484e-05
9.559999999999999432e+01,4.744679999999999731e-02,1.753828383850601831e-04
9.600000000000000000e+01,4.721959999999999352e-02,1.728810573776084700e-04
9.640000000000000568e+01,4.693899999999999462e-02,8.814817071272663951e-05
9.679999999999999716e+01,4.679540000000000088e-02,1.022661234231545495e-04
9.720000000000000284e+01,4.676740000000000064e-02,1.449981379190782541e-04
9.759999999999999432e+01,4.656520000000000103e-02,1.044252842945618000e-04
9.800000000000000000e+01,4.631699999999999706e-02,1.742615849807401082e-04
9.840000000000000568e+01,4.609919999999999990e-02,1.707089335682230994e-04
9.879999999999999716e+01,4.592179999999999873e-02,1.698921422550199846e-04
9.920000000000000284e+01,4.560679999999999595e-02,2.138993688630236279e-04
9.959999999999999432e+01,4.542260000000000048e-02,3.613270817417373396e-04
1.000000000000000000e+02,4.530460000000000043e-02,2.390607872487667776e-04
1.004000000000000057e+02,4.476379999999999942e-02,2.708821514976582898e-04
1.007999999999999972e+02,4.463279999999999331e-02,2.956517207797041162e-04
1.012000000000000028e+02,4.448060000000000208e-02,3.352019689679635152e-04
1.015999999999999943e+02,4.427939999999999654e-02,2.477711847652985843e-04
1.020000000000000000e+02,4.415759999999999824e-02,2.313976231511458853e-04
1.024000000000000057e+02,4.390639999999999821e-02,2.684087554458683324e-04
1.027999999999999972e+02,4.372420000000000473e-02,3.768707205395501326e-04
1.032000000000000028e+02,4.336299999999999877e-02,4.022420912833461998e-04
1.035999999999999943e+02,4.318580000000000335e-02,3.546910486606619489e-04
1.040000000000000000e+02,4.318239999999999579e-02,3.955730779514701778e-04
1.044000000000000057e+02,4.308580000000000049e-02,3.744938450762585851e-04
1.047999999999999972e+02,4.262639999999999485e-02,4.071812372887532658e-04
1.052000000000000028e+02,4.272740000000000565e-02,2.437259936896353247e-04
1.055999999999999943e+02,4.225419999999999870e-02,2.784599432593496955e-04
1.060000000000000000e+02,4.213019999999999265e-02,1.598034417651887488e-04
1.064000000000000057e+02,4.207419999999999216e-02,2.931807292439249932e-04
