timestep,H(t)_mean,H(t)_err
2.000000000000000111e-01,8.841442000000000467e-01,1.124533254288206420e-03
4.000000000000000222e-01,8.173774000000000317e-01,1.369926589274034559e-03
5.999999999999999778e-01,7.657272000000000522e-01,1.295850701276969738e-03
8.000000000000000444e-01,7.218871999999999511e-01,1.524378935829282617e-03
1.000000000000000000e+00,6.833783999999999414e-01,2.019073515253954221e-03
1.199999999999999956e+00,6.465231999999999646e-01,1.776545338571463651e-03
1.399999999999999911e+00,6.157491999999999965e-01,1.515369341117872798e-03
1.600000000000000089e+00,5.891373999999999223e-01,1.730329812492392661e-03
1.800000000000000044e+00,5.626133999999999302e-01,1.007768554778335065e-03
2.000000000000000000e+00,5.386159999999999837e-01,1.156775864201871383e-03
2.200000000000000178e+00,5.144945999999999131e-01,1.362447488896357996e-03
2.399999999999999911e+00,4.937998000000000109e-01,1.762166802547365709e-03
2.600000000000000089e+00,4.758618000000000015e-01,2.166698811556421779e-03
2.799999999999999822e+00,4.578579999999999872e-01,2.619257776546632388e-03
3.000000000000000000e+00,4.400857999999999715e-01,2.065555867073075834e-03
3.200000000000000178e+00,4.231585999999999959e-01,2.347719757551996675e-03
3.399999999999999911e+00,4.078158000000000061e-01,2.290071470500434046e-03
3.600000000000000089e+00,3.930763999999999925e-01,1.675162726423913215e-03
3.799999999999999822e+00,3.778544000000000347e-01,1.046979541347393960e-03
4.000000000000000000e+00,3.657378000000000018e-01,1.694835844558398698e-03
4.200000000000000178e+00,3.548833999999999600e-01,1.362511416465927777e-03
4.400000000000000355e+00,3.439404000000000350e-01,1.651186137296456339e-03
4.599999999999999645e+00,3.324169999999999625e-01,1.564188639518902021e-03
4.799999999999999822e+00,3.223849999999999771e-01,9.667769649717575849e-04
5.000000000000000000e+00,3.112766000000000144e-01,1.252127733100740284e-03
5.200000000000000178e+00,3.017592000000000052e-01,9.115250078851302095e-04
5.400000000000000355e+00,2.920501999999999820e-01,7.993869776272366718e-04
5.599999999999999645e+00,2.837683999999999762e-01,2.849825608699607486e-04
5.799999999999999822e+00,2.763143999999999600e-01,7.360899129861795970e-04
6.000000000000000000e+00,2.690273999999999721e-01,7.952262948368872238e-04
6.200000000000000178e+00,2.604144000000000458e-01,3.036146570902044698e-04
6.400000000000000355e+00,2.536197999999999508e-01,4.170111988903846940e-04
6.599999999999999645e+00,2.463658000000000237e-01,5.119559942026239005e-04
6.799999999999999822e+00,2.397644000000000164e-01,6.733452754716561179e-04
7.000000000000000000e+00,2.331986000000000059e-01,1.020726339426979590e-03
7.200000000000000178e+00,2.277928000000000175e-01,9.013932216297190336e-04
7.400000000000000355e+00,2.231841999999999993e-01,1.233088131481283132e-03
7.599999999999999645e+00,2.177343999999999669e-01,8.929206347710858015e-04
7.799999999999999822e+00,2.112230000000000218e-01,1.167792447312445943e-03
8.000000000000000000e+00,2.070330000000000226e-01,9.616228470663541012e-04
8.199999999999999289e+00,2.011871999999999827e-01,1.164023642371579681e-03
8.400000000000000355e+00,1.962415999999999883e-01,1.033442141583166283e-03
8.599999999999999645e+00,1.918753999999999738e-01,1.065385357511544531e-03
8.800000000000000711e+00,1.878804000000000030e-01,9.478516023091394013e-04
9.000000000000000000e+00,1.836144000000000109e-01,5.364627293671029836e-04
9.199999999999999289e+00,1.797510000000000219e-01,9.588215683848589277e-04
9.400000000000000355e+00,1.751758000000000204e-01,1.271046041652308623e-03
9.599999999999999645e+00,1.718822000000000128e-01,1.065390979875463365e-03
9.800000000000000711e+00,1.678687999999999847e-01,1.262961654208074160e-03
1.000000000000000000e+01,1.632606000000000057e-01,1.374145428984865436e-03
1.019999999999999929e+01,1.597371999999999681e-01,1.480531809857526518e-03
1.040000000000000036e+01,1.569586000000000037e-01,1.169120635349492256e-03
1.059999999999999964e+01,1.533909999999999996e-01,8.541470013996409075e-04
1.080000000000000071e+01,1.507437999999999834e-01,9.146946703682072013e-04
1.100000000000000000e+01,1.470130000000000048e-01,1.253987998347674306e-03
1.119999999999999929e+01,1.445728000000000013e-01,1.178101752821037471e-03
1.140000000000000036e+01,1.430309999999999915e-01,1.382729329984721265e-03
1.159999999999999964e+01,1.391020000000000034e-01,1.459921059509726232e-03
1.180000000000000071e+01,1.369234000000000284e-01,1.655281776616898161e-03
1.200000000000000000e+01,1.347470000000000057e-01,1.602265614684409778e-03
1.219999999999999929e+01,1.326347999999999971e-01,1.453220471917460047e-03
1.240000000000000036e+01,1.298447999999999825e-01,1.568280185426061679e-03
1.259999999999999964e+01,1.268461999999999923e-01,1.330778170845915882e-03
1.280000000000000071e+01,1.241854000000000013e-01,1.019849479089926774e-03
1.300000000000000000e+01,1.226644000000000068e-01,7.324647158737410905e-04
1.319999999999999929e+01,1.204969999999999930e-01,7.014462916004317273e-04
1.340000000000000036e+01,1.179488000000000064e-01,1.023170288857137974e-03
1.359999999999999964e+01,1.163927999999999907e-01,6.026013939578960628e-04
1.380000000000000071e+01,1.137570000000000248e-01,9.534953067530006635e-04
1.400000000000000000e+01,1.111514000000000113e-01,6.806094034025688246e-04
1.419999999999999929e+01,1.085237999999999897e-01,9.449486441071810365e-04
1.440000000000000036e+01,1.070030000000000009e-01,9.280482207299365011e-04
1.459999999999999964e+01,1.058534000000000141e-01,1.291572127292935470e-03
1.480000000000000071e+01,1.035660000000000053e-01,1.267457888846803930e-03
1.500000000000000000e+01,1.007870000000000016e-01,9.319023017462717100e-04
1.519999999999999929e+01,9.975779999999999370e-02,6.534853785663465465e-04
1.540000000000000036e+01,9.820460000000000300e-02,7.932341772767993347e-04
1.559999999999999964e+01,9.698980000000000101e-02,6.706632090699484730e-04
1.580000000000000071e+01,9.472400000000000264e-02,6.036856798036530037e-04
1.600000000000000000e+01,9.312679999999999569e-02,6.454181900132661140e-04
1.619999999999999929e+01,9.186740000000000184e-02,8.194718176972291563e-04
1.639999999999999858e+01,9.076419999999998933e-02,9.003914370983324153e-04
1.660000000000000142e+01,8.944919999999999261e-02,9.243660746695533427e-04
1.680000000000000071e+01,8.796220000000000427e-02,6.730367300526760932e-04
1.700000000000000000e+01,8.689060000000001227e-02,9.122768549075447719e-04
1.719999999999999929e+01,8.524940000000000295e-02,1.091584701248601982e-03
1.739999999999999858e+01,8.403479999999999284e-02,8.226306826273869924e-04
1.760000000000000142e+01,8.248179999999999401e-02,9.689972858579116478e-04
1.780000000000000071e+01,8.069759999999999434e-02,9.630269258956375769e-04
1.800000000000000000e+01,7.997619999999999729e-02,1.149012767553085363e-03
1.819999999999999929e+01,7.865060000000000107e-02,8.270875769832343070e-04
1.839999999999999858e+01,7.688980000000000814e-02,8.017690066347033396e-04
1.860000000000000142e+01,7.585879999999999013e-02,3.047365091353503659e-04
1.880000000000000071e+01,7.525779999999999970e-02,4.334065527884877855e-04
1.900000000000000000e+01,7.453519999999999590e-02,3.775926906072209319e-04
1.919999999999999929e+01,7.382479999999999598e-02,6.596488762970788289e-04
1.939999999999999858e+01,7.206220000000000681e-02,6.269749117787726863e-04
1.960000000000000142e+01,7.149220000000000574e-02,5.774876102567060715e-04
1.980000000000000071e+01,6.963139999999999608e-02,5.100776019391567787e-04
2.000000000000000000e+01,6.812139999999999862e-02,2.678950540790173964e-04
2.019999999999999929e+01,6.736759999999999970e-02,4.442165688040014483e-04
2.039999999999999858e+01,6.703960000000000474e-02,5.621122307867004340e-04
2.060000000000000142e+01,6.663579999999999504e-02,7.691899245309962319e-04
2.080000000000000071e+01,6.571660000000000001e-02,8.526024044066490577e-04
2.100000000000000000e+01,6.417300000000000781e-02,8.923243244471144690e-04
2.119999999999999929e+01,6.312139999999999418e-02,6.580830190789003055e-04
2.139999999999999858e+01,6.306720000000000381e-02,8.283018411183211893e-04
2.160000000000000142e+01,6.274939999999999685e-02,8.053227055038243319e-04
2.180000000000000071e+01,6.155719999999999942e-02,1.146601081457714619e-03
2.200000000000000000e+01,6.063880000000000658e-02,1.335377002947108708e-03
2.219999999999999929e+01,6.003640000000000365e-02,1.160272493856507508e-03
2.239999999999999858e+01,5.889740000000000253e-02,1.373502515469119615e-03
2.260000000000000142e+01,5.815379999999999855e-02,1.426592948251181750e-03
2.280000000000000071e+01,5.778160000000000240e-02,1.160165100319777987e-03
2.300000000000000000e+01,5.702619999999999217e-02,1.158178328237928099e-03
2.319999999999999929e+01,5.552680000000000116e-02,8.441639888078615334e-04
2.339999999999999858e+01,5.513440000000000701e-02,1.062918275315651940e-03
2.360000000000000142e+01,5.412639999999999812e-02,6.461219389557982477e-04
2.380000000000000071e+01,5.369960000000000011e-02,6.179793362241170701e-04
2.400000000000000000e+01,5.325059999999999516e-02,8.295990959493630213e-04
2.419999999999999929e+01,5.223259999999999709e-02,8.467629302230942267e-04
2.439999999999999858e+01,5.197100000000000330e-02,8.386624469952143899e-04
2.460000000000000142e+01,5.128100000000000019e-02,8.367668133954644450e-04
2.480000000000000071e+01,5.070120000000000182e-02,1.017867496288195860e-03
2.500000000000000000e+01,5.029639999999999805e-02,9.243187545430411487e-04
2.519999999999999929e+01,5.025199999999999806e-02,6.013196321425063164e-04
2.539999999999999858e+01,5.040580000000001448e-02,8.995745883471809685e-04
2.560000000000000142e+01,4.978060000000000124e-02,6.708132079796878637e-04
2.580000000000000071e+01,4.978039999999999549e-02,4.414696592066091646e-04
2.600000000000000000e+01,4.916899999999999743e-02,5.846522043061149528e-04
2.619999999999999929e+01,4.880719999999999503e-02,4.607558355571845067e-04
2.639999999999999858e+01,4.817240000000000411e-02,4.571276189424568464e-04
2.660000000000000142e+01,4.736359999999999876e-02,4.697242382504857234e-04
2.680000000000000071e+01,4.691399999999999737e-02,3.483104936690828305e-04
2.700000000000000000e+01,4.665079999999999921e-02,3.496508830247676875e-04
2.719999999999999929e+01,4.665079999999999921e-02,3.959830046858075483e-04
2.739999999999999858e+01,4.572140000000000232e-02,3.371542080413656470e-04
2.760000000000000142e+01,4.533780000000000449e-02,2.980763996025177255e-04
2.780000000000000071e+01,4.487859999999999766e-02,4.653102835743044212e-04
2.800000000000000000e+01,4.461499999999999494e-02,5.405259475732874467e-04
2.819999999999999929e+01,4.382720000000000365e-02,4.416212630750476461e-04
2.839999999999999858e+01,4.336840000000000139e-02,5.159867827764584147e-04
2.860000000000000142e+01,4.264559999999999879e-02,4.461299810593315077e-04
2.880000000000000071e+01,4.225259999999999433e-02,7.893579416209102299e-04
2.900000000000000000e+01,4.158579999999999222e-02,9.413093752852995637e-04
2.919999999999999929e+01,4.157360000000000222e-02,7.769979794053525832e-04
2.939999999999999858e+01,4.128860000000000169e-02,8.574905597147987378e-04
2.960000000000000142e+01,4.039060000000000566e-02,8.158825037957356851e-04
2.980000000000000071e+01,3.992020000000000290e-02,6.908971992995770542e-04
3.000000000000000000e+01,3.964700000000000168e-02,6.154233502232429095e-04
3.019999999999999929e+01,3.900079999999999519e-02,7.380290915675341177e-04
3.039999999999999858e+01,3.881459999999999078e-02,8.144630501133853090e-04
3.060000000000000142e+01,3.798400000000000387e-02,8.089478969624684570e-04
3.080000000000000071e+01,3.753499999999999892e-02,8.791280907808597883e-04
3.100000000000000000e+01,3.755660000000000248e-02,1.013613861389039972e-03
3.119999999999999929e+01,3.703120000000000023e-02,6.384013941087535822e-04
3.139999999999999858e+01,3.626519999999999744e-02,6.662499831144463478e-04
3.160000000000000142e+01,3.610139999999999877e-02,6.393684071018839636e-04
3.180000000000000071e+01,3.523659999999999987e-02,8.000741590627711034e-04
3.200000000000000000e+01,3.503979999999999595e-02,8.770885588126205688e-04
3.220000000000000284e+01,3.478819999999999135e-02,7.354029779651419371e-04
3.239999999999999858e+01,3.437259999999999621e-02,9.267718489466537056e-04
3.260000000000000142e+01,3.411999999999999755e-02,7.330239423102081261e-04
3.279999999999999716e+01,3.403379999999999600e-02,5.739238102744995693e-04
3.300000000000000000e+01,3.358460000000000611e-02,5.988661453112871817e-04
3.320000000000000284e+01,3.326639999999999459e-02,5.662736617572816265e-04
3.339999999999999858e+01,3.276379999999999570e-02,6.239690216669411789e-04
3.360000000000000142e+01,3.252339999999999398e-02,6.431946517190573372e-04
3.379999999999999716e+01,3.266539999999999722e-02,5.389802037180955541e-04
3.400000000000000000e+01,3.232460000000000194e-02,6.671731859120234778e-04
3.420000000000000284e+01,3.210659999999999903e-02,7.316971777996684459e-04
3.439999999999999858e+01,3.199679999999999885e-02,8.036475222384506165e-04
3.460000000000000142e+01,3.106640000000000443e-02,4.604719969770149448e-04
3.479999999999999716e+01,3.078159999999999924e-02,6.230419408033462114e-04
3.500000000000000000e+01,3.042080000000000478e-02,6.861762455812651061e-04
3.520000000000000284e+01,2.977480000000000057e-02,7.584351916940559315e-04
3.539999999999999858e+01,2.974220000000000336e-02,5.509610149547788287e-04
3.560000000000000142e+01,2.931520000000000306e-02,5.702356881150104926e-04
3.579999999999999716e+01,2.955659999999999885e-02,4.547081041723361871e-04
3.600000000000000000e+01,2.936980000000000146e-02,5.601698313904456472e-04
3.620000000000000284e+01,2.892119999999999760e-02,4.562664134033970575e-04
3.639999999999999858e+01,2.852660000000000265e-02,6.525913422655864240e-04
3.660000000000000142e+01,2.923859999999999654e-02,6.041164291757016242e-04
3.679999999999999716e+01,2.889919999999999642e-02,5.665551517725351312e-04
3.700000000000000000e+01,2.900880000000000125e-02,5.301111581545894617e-04
3.720000000000000284e+01,2.838439999999999713e-02,6.530360326965117986e-04
3.739999999999999858e+01,2.833060000000000092e-02,3.905618516957334060e-04
3.760000000000000142e+01,2.814419999999999769e-02,5.282928543904416184e-04
3.779999999999999716e+01,2.787140000000000103e-02,2.691979940489892722e-04
3.800000000000000000e+01,2.792620000000000172e-02,3.582667162882983568e-04
3.820000000000000284e+01,2.749860000000000151e-02,5.312405857989388599e-04
3.839999999999999858e+01,2.706140000000000281e-02,4.892252650875666227e-04
3.860000000000000142e+01,2.671160000000000201e-02,2.315976252037144545e-04
3.879999999999999716e+01,2.666759999999999617e-02,3.676848650678998668e-04
3.900000000000000000e+01,2.650279999999999997e-02,5.255423294083928602e-04
3.920000000000000284e+01,2.654679999999999887e-02,5.547712501563148435e-04
3.939999999999999858e+01,2.612060000000000076e-02,4.774681769500457515e-04
3.960000000000000142e+01,2.609900000000000067e-02,5.675844430567137050e-04
3.979999999999999716e+01,2.560620000000000257e-02,5.397403449808062161e-04
4.000000000000000000e+01,2.559600000000000070e-02,5.266475102001337560e-04
4.020000000000000284e+01,2.544360000000000024e-02,3.942236167456234538e-04
4.039999999999999858e+01,2.558520000000000238e-02,3.739956416858356112e-04
4.060000000000000142e+01,2.488419999999999868e-02,4.288595807487572114e-04
4.079999999999999716e+01,2.461100000000000093e-02,3.779932539080557382e-04
4.100000000000000000e+01,2.414000000000000173e-02,4.243339486772180450e-04
4.120000000000000284e+01,2.442439999999999889e-02,3.575798652049636222e-04
4.139999999999999858e+01,2.453359999999999916e-02,6.178092424041582492e-04
4.160000000000000142e+01,2.438020000000000118e-02,6.663272019060907832e-04
4.179999999999999716e+01,2.419579999999999995e-02,3.731746775975026183e-04
4.200000000000000000e+01,2.409599999999999936e-02,4.889570533288175322e-04
4.220000000000000284e+01,2.426000000000000378e-02,5.352547991377563843e-04
4.239999999999999858e+01,2.416159999999999836e-02,4.521822199069749828e-04
4.260000000000000142e+01,2.320939999999999809e-02,5.846765430560729943e-04
4.279999999999999716e+01,2.319820000000000215e-02,6.338456752238667965e-04
4.300000000000000000e+01,2.281520000000000076e-02,6.371926239372199992e-04
4.320000000000000284e+01,2.277219999999999939e-02,3.545410272450850867e-04
4.339999999999999858e+01,2.249780000000000182e-02,3.952740062285907061e-04
4.360000000000000142e+01,2.234539999999999790e-02,2.653674056850233577e-04
4.379999999999999716e+01,2.215980000000000033e-02,1.292862715062972846e-04
4.400000000000000000e+01,2.194099999999999870e-02,1.939976803985034954e-04
4.420000000000000284e+01,2.171139999999999876e-02,3.376168834640830329e-04
4.439999999999999858e+01,2.169999999999999707e-02,3.208088215744700315e-04
4.460000000000000142e+01,2.154679999999999790e-02,3.212242830173333641e-04
4.479999999999999716e+01,2.153559999999999849e-02,3.674518471854510532e-04
4.500000000000000000e+01,2.161220000000000155e-02,2.490528859499518965e-04
4.520000000000000284e+01,2.174300000000000191e-02,2.704257753987218205e-04
4.539999999999999858e+01,2.149179999999999841e-02,2.997327809900011139e-04
4.560000000000000142e+01,2.178719999999999962e-02,3.521200647506472097e-04
4.579999999999999716e+01,2.130519999999999983e-02,4.304520182319972427e-04
4.600000000000000000e+01,2.097819999999999893e-02,3.416334878199149831e-04
4.620000000000000284e+01,2.063880000000000228e-02,3.420608717757705921e-04
4.639999999999999858e+01,2.078100000000000086e-02,2.385200201240975245e-04
4.660000000000000142e+01,2.066080000000000000e-02,2.648088744736473601e-04
4.679999999999999716e+01,2.050779999999999964e-02,4.701499122620356620e-04
4.700000000000000000e+01,2.026659999999999920e-02,5.351174263654661463e-04
4.720000000000000284e+01,2.033280000000000157e-02,3.983852908931254122e-04
4.739999999999999858e+01,2.040979999999999878e-02,3.446146253425705092e-04
4.760000000000000142e+01,1.985120000000000287e-02,3.305229795339499686e-04
4.779999999999999716e+01,1.972020000000000023e-02,1.870498329322963004e-04
4.800000000000000000e+01,1.938039999999999902e-02,1.524075457449535073e-04
4.820000000000000284e+01,1.921640000000000154e-02,2.376725899215134641e-04
4.839999999999999858e+01,1.908499999999999780e-02,2.457761176355424335e-04
4.860000000000000142e+01,1.895360000000000100e-02,2.257916296057053333e-04
4.879999999999999716e+01,1.888820000000000082e-02,2.224096220940088658e-04
4.900000000000000000e+01,1.870139999999999997e-02,3.404340758502298245e-04
4.920000000000000284e+01,1.881120000000000014e-02,5.347191225306983844e-04
4.939999999999999858e+01,1.906259999999999899e-02,4.529755622547425396e-04
4.960000000000000142e+01,1.905199999999999949e-02,4.060371904148683776e-04
4.979999999999999716e+01,1.880019999999999608e-02,2.131296319144761480e-04
5.000000000000000000e+01,1.825279999999999958e-02,2.462972594244604058e-04
5.020000000000000284e+01,1.842759999999999884e-02,3.627619880858521436e-04
5.039999999999999858e+01,1.848280000000000062e-02,3.170112616296148550e-04
5.060000000000000142e+01,1.829620000000000204e-02,3.422412014939172731e-04
5.079999999999999716e+01,1.783660000000000107e-02,3.032381242522118174e-04
5.100000000000000000e+01,1.786979999999999819e-02,2.498710467421146075e-04
5.120000000000000284e+01,1.792460000000000234e-02,3.313942666975398582e-04
5.139999999999999858e+01,1.784759999999999819e-02,3.652771002951048555e-04
5.160000000000000142e+01,1.800120000000000192e-02,3.894328440180665316e-04
5.179999999999999716e+01,1.793540000000000065e-02,3.342519409068553946e-04
5.200000000000000000e+01,1.773840000000000139e-02,2.681433571804455775e-04
5.220000000000000284e+01,1.777159999999999851e-02,2.643302101538903414e-04
5.239999999999999858e+01,1.742139999999999661e-02,2.026071568331188320e-04
5.260000000000000142e+01,1.721260000000000151e-02,3.628557013469675165e-04
5.279999999999999716e+01,1.678660000000000221e-02,3.402686585626131500e-04
5.300000000000000000e+01,1.697240000000000207e-02,3.056081805187812572e-04
5.320000000000000284e+01,1.680800000000000002e-02,2.831642632819333927e-04
