timestep,H(t)_mean,H(t)_err
2.000000000000000111e-01,8.391943999999998960e-01,5.808958254282707654e-04
4.000000000000000222e-01,7.101494000000000417e-01,1.352152158597540177e-03
5.999999999999999778e-01,6.192130000000000134e-01,1.291424833275236356e-03
8.000000000000000444e-01,5.592340000000001199e-01,2.305902903419830129e-03
1.000000000000000000e+00,5.105007999999999768e-01,2.024038719985374411e-03
1.199999999999999956e+00,4.685347999999999180e-01,2.928489907785247412e-03
1.399999999999999911e+00,4.315073999999999854e-01,2.020644243799485200e-03
1.600000000000000089e+00,3.969479999999999675e-01,2.521084746691392570e-03
1.800000000000000044e+00,3.683044000000000318e-01,2.205979410602011432e-03
2.000000000000000000e+00,3.461578000000000155e-01,2.454856154645318304e-03
2.200000000000000178e+00,3.222566000000000042e-01,2.254085947784600658e-03
2.399999999999999911e+00,3.003890000000000171e-01,2.399128195824480701e-03
2.600000000000000089e+00,2.809010000000000118e-01,1.604048658862941481e-03
2.799999999999999822e+00,2.637960000000000305e-01,2.005005436401605199e-03
3.000000000000000000e+00,2.466039999999999621e-01,2.186109695326378822e-03
3.200000000000000178e+00,2.305790000000000062e-01,1.373306957675523438e-03
3.399999999999999911e+00,2.168591999999999742e-01,1.247996931085967355e-03
3.600000000000000089e+00,2.036411999999999944e-01,1.697659871705755772e-03
3.799999999999999822e+00,1.923846000000000167e-01,3.539271656711306946e-03
4.000000000000000000e+00,1.823402000000000078e-01,2.810930333537277771e-03
4.200000000000000178e+00,1.727255999999999792e-01,2.496830943416075092e-03
4.400000000000000355e+00,1.640650000000000164e-01,1.921505581568785318e-03
4.599999999999999645e+00,1.569115999999999844e-01,2.244137486875524921e-03
4.799999999999999822e+00,1.492815999999999865e-01,2.537526031393573522e-03
5.000000000000000000e+00,1.429642000000000412e-01,2.152261424641531071e-03
5.200000000000000178e+00,1.351999999999999869e-01,2.008186943489079310e-03
5.400000000000000355e+00,1.292646000000000073e-01,2.148921720305325186e-03
5.599999999999999645e+00,1.233970000000000067e-01,1.985037657073535165e-03
5.799999999999999822e+00,1.177122000000000029e-01,1.804258944830258943e-03
6.000000000000000000e+00,1.112663999999999875e-01,1.819727908232436457e-03
6.200000000000000178e+00,1.073630000000000140e-01,2.413358489739973398e-03
6.400000000000000355e+00,1.030842000000000008e-01,2.205783293979714926e-03
6.599999999999999645e+00,9.826419999999999599e-02,1.966936714792828084e-03
6.799999999999999822e+00,9.380800000000000249e-02,1.991501770021809458e-03
7.000000000000000000e+00,8.995359999999999467e-02,2.135842002583523882e-03
7.200000000000000178e+00,8.513199999999999934e-02,1.812138515676989421e-03
7.400000000000000355e+00,8.211019999999999430e-02,1.958934797281419986e-03
7.599999999999999645e+00,7.904459999999999265e-02,1.920135687913746480e-03
7.799999999999999822e+00,7.692279999999998563e-02,1.639291535999622042e-03
8.000000000000000000e+00,7.358139999999999126e-02,1.759151858140734501e-03
8.199999999999999289e+00,7.070239999999999858e-02,1.979919003393825275e-03
8.400000000000000355e+00,6.848360000000000558e-02,1.703886574863480111e-03
8.599999999999999645e+00,6.566700000000000315e-02,1.574675966667428602e-03
8.800000000000000711e+00,6.351840000000000264e-02,1.411558769587720847e-03
9.000000000000000000e+00,6.180839999999999945e-02,1.409355263941636932e-03
9.199999999999999289e+00,5.936919999999999698e-02,1.098213567572355661e-03
9.400000000000000355e+00,5.714919999999999722e-02,1.238965673455079972e-03
9.599999999999999645e+00,5.548720000000000041e-02,1.374573584789115380e-03
9.800000000000000711e+00,5.396539999999999671e-02,1.539589542702859710e-03
1.000000000000000000e+01,5.211580000000000379e-02,1.519878922809313887e-03
1.019999999999999929e+01,5.071279999999998844e-02,1.104832448835569659e-03
1.040000000000000036e+01,4.985139999999999710e-02,6.315259772962629817e-04
1.059999999999999964e+01,4.814459999999999573e-02,6.730309502541469884e-04
1.080000000000000071e+01,4.623420000000000307e-02,9.035015439942529862e-04
1.100000000000000000e+01,4.476360000000000061e-02,7.888557916374824364e-04
1.119999999999999929e+01,4.357619999999999549e-02,7.249685786294469709e-04
1.140000000000000036e+01,4.203459999999999835e-02,7.019615801452386760e-04
1.159999999999999964e+01,4.134240000000000137e-02,6.671682396517387677e-04
1.180000000000000071e+01,3.987759999999999916e-02,8.787323597091443225e-04
1.200000000000000000e+01,3.949060000000000070e-02,7.567880548740173229e-04
1.219999999999999929e+01,3.792260000000000075e-02,4.016749432065686519e-04
1.240000000000000036e+01,3.666239999999999777e-02,3.544694062962273993e-04
1.259999999999999964e+01,3.570779999999999788e-02,4.066219866165628302e-04
1.280000000000000071e+01,3.532140000000000279e-02,5.954223375050687796e-04
1.300000000000000000e+01,3.447119999999999351e-02,3.700107295741576416e-04
1.319999999999999929e+01,3.423939999999999623e-02,3.545478247007027807e-04
1.340000000000000036e+01,3.271200000000000496e-02,4.983090406564984068e-04
1.359999999999999964e+01,3.249819999999999792e-02,4.796855636768735005e-04
1.380000000000000071e+01,3.147959999999999647e-02,8.875576375650201738e-04
1.400000000000000000e+01,3.003239999999999729e-02,4.716318055432648757e-04
1.419999999999999929e+01,2.882799999999999946e-02,7.206803729809770683e-04
1.440000000000000036e+01,2.818100000000000119e-02,6.551629568282993582e-04
1.459999999999999964e+01,2.705600000000000366e-02,6.605188112385595306e-04
1.480000000000000071e+01,2.719599999999999795e-02,7.363205144500592101e-04
1.500000000000000000e+01,2.695100000000000273e-02,7.142491162052636445e-04
1.519999999999999929e+01,2.668559999999999682e-02,7.600247759119432974e-04
1.540000000000000036e+01,2.565440000000000081e-02,7.550303702500973588e-04
1.559999999999999964e+01,2.543660000000000365e-02,8.083685793003088501e-04
1.580000000000000071e+01,2.441739999999999883e-02,1.106506240380052825e-03
1.600000000000000000e+01,2.372620000000000284e-02,7.012715166039469594e-04
1.619999999999999929e+01,2.294159999999999949e-02,5.672120943703508247e-04
1.639999999999999858e+01,2.283539999999999875e-02,3.914579926377797017e-04
1.660000000000000142e+01,2.260279999999999928e-02,7.301076906867915274e-04
1.680000000000000071e+01,2.244840000000000030e-02,8.716926407857298990e-04
1.700000000000000000e+01,2.187800000000000161e-02,8.727322040580378065e-04
1.719999999999999929e+01,2.137060000000000001e-02,6.346785485582445751e-04
1.739999999999999858e+01,2.067740000000000203e-02,5.377366083874145870e-04
1.760000000000000142e+01,2.056720000000000076e-02,7.797311972724956268e-04
1.780000000000000071e+01,2.012119999999999881e-02,6.180502730361022790e-04
1.800000000000000000e+01,1.955360000000000084e-02,4.582736736929145867e-04
1.819999999999999929e+01,1.968940000000000273e-02,7.852176513553420049e-04
1.839999999999999858e+01,1.949000000000000038e-02,8.441605297572258746e-04
1.860000000000000142e+01,1.972180000000000114e-02,7.143299937703858444e-04
1.880000000000000071e+01,1.872140000000000262e-02,7.861781350304774749e-04
1.900000000000000000e+01,1.870559999999999931e-02,6.944616332094954211e-04
1.919999999999999929e+01,1.805760000000000004e-02,5.672284901166374039e-04
1.939999999999999858e+01,1.796419999999999961e-02,7.819505994626512911e-04
1.960000000000000142e+01,1.723939999999999848e-02,8.426915568581425098e-04
1.980000000000000071e+01,1.673399999999999888e-02,6.617315921126934409e-04
2.000000000000000000e+01,1.657919999999999880e-02,4.561480461429163894e-04
2.019999999999999929e+01,1.607060000000000086e-02,3.184912243688984711e-04
2.039999999999999858e+01,1.577920000000000017e-02,2.604134021128714583e-04
2.060000000000000142e+01,1.533260000000000178e-02,4.069728000739116554e-04
2.080000000000000071e+01,1.505699999999999747e-02,4.690949797215910504e-04
2.100000000000000000e+01,1.479439999999999922e-02,4.481567359752611050e-04
2.119999999999999929e+01,1.477959999999999864e-02,5.823570725937821492e-04
2.139999999999999858e+01,1.453180000000000097e-02,4.152653850250462449e-04
2.160000000000000142e+01,1.427139999999999832e-02,4.974030156724021726e-04
2.180000000000000071e+01,1.388520000000000032e-02,3.997534740311834258e-04
2.200000000000000000e+01,1.371600000000000076e-02,4.506963501072535142e-04
2.219999999999999929e+01,1.323779999999999922e-02,4.646162287307667471e-04
2.239999999999999858e+01,1.291700000000000140e-02,4.747386649515710670e-04
2.260000000000000142e+01,1.229900000000000090e-02,4.888938535101459244e-04
2.280000000000000071e+01,1.220559999999999874e-02,3.900149484314670398e-04
2.300000000000000000e+01,1.195739999999999997e-02,3.247153522702613524e-04
2.319999999999999929e+01,1.191159999999999962e-02,3.550893690326423907e-04
2.339999999999999858e+01,1.188140000000000029e-02,2.741774243076916442e-04
2.360000000000000142e+01,1.154099999999999918e-02,2.746563307116732370e-04
2.380000000000000071e+01,1.131159999999999978e-02,5.208076996358637590e-04
2.400000000000000000e+01,1.088019999999999786e-02,4.882384048802389243e-04
2.419999999999999929e+01,1.121880000000000099e-02,4.898964584481090923e-04
2.439999999999999858e+01,1.067939999999999862e-02,2.496296456753483838e-04
2.460000000000000142e+01,1.068040000000000135e-02,2.779403892923803534e-04
2.480000000000000071e+01,1.024839999999999952e-02,2.374018955273944674e-04
2.500000000000000000e+01,1.057199999999999980e-02,1.604418897919119896e-04
2.519999999999999929e+01,1.023159999999999868e-02,2.829037999037836574e-04
2.539999999999999858e+01,9.846799999999999303e-03,3.519916760379425435e-04
2.560000000000000142e+01,9.586000000000000770e-03,2.542516469956488854e-04
2.580000000000000071e+01,9.385199999999999793e-03,1.547289242514146329e-04
2.600000000000000000e+01,9.524799999999999933e-03,2.074122465043951014e-04
2.619999999999999929e+01,9.924399999999999888e-03,2.112511775115112416e-04
2.639999999999999858e+01,9.831799999999999914e-03,2.515148902152713898e-04
2.660000000000000142e+01,9.738600000000000034e-03,2.742979402037133392e-04
2.680000000000000071e+01,9.416000000000000758e-03,1.887951270557584221e-04
2.700000000000000000e+01,9.277600000000000430e-03,2.099372763470080407e-04
2.719999999999999929e+01,9.000400000000000414e-03,2.814818999509559718e-04
2.739999999999999858e+01,8.984999999999999931e-03,2.868632078186396242e-04
2.760000000000000142e+01,8.861400000000000179e-03,3.113062158068805757e-04
2.780000000000000071e+01,8.954400000000001247e-03,2.983411805299428644e-04
2.800000000000000000e+01,8.830599999999999214e-03,2.125677774264011003e-04
2.819999999999999929e+01,8.522599999999999967e-03,3.115080416297466332e-04
2.839999999999999858e+01,7.999800000000001354e-03,4.255923401566339532e-04
2.860000000000000142e+01,8.186399999999999927e-03,5.865143306007107636e-04
2.880000000000000071e+01,8.432199999999999071e-03,5.851609522174221418e-04
2.900000000000000000e+01,8.046000000000001068e-03,5.347480715252743476e-04
2.919999999999999929e+01,7.892399999999999069e-03,4.297371987622201385e-04
2.939999999999999858e+01,7.445199999999999041e-03,4.196633650915933744e-04
2.960000000000000142e+01,7.399599999999999234e-03,5.113281333938117512e-04
2.980000000000000071e+01,7.691200000000000467e-03,4.895039734261612567e-04
3.000000000000000000e+01,7.490399999999999489e-03,5.489464090419029140e-04
3.019999999999999929e+01,7.582999999999999463e-03,6.123958686993241250e-04
3.039999999999999858e+01,7.459400000000000579e-03,4.995168265434107337e-04
3.060000000000000142e+01,7.644799999999998472e-03,4.611502358234245507e-04
3.080000000000000071e+01,7.875599999999999962e-03,3.331006754721461721e-04
3.100000000000000000e+01,7.860999999999999932e-03,3.334910793409622898e-04
3.119999999999999929e+01,7.352800000000001349e-03,3.195023317598793254e-04
3.139999999999999858e+01,7.337000000000000639e-03,2.492671257907869771e-04
3.160000000000000142e+01,7.090000000000000815e-03,3.910185417598505521e-04
3.180000000000000071e+01,7.215399999999999418e-03,7.009465457508153420e-04
3.200000000000000000e+01,7.338200000000000452e-03,6.052037177678272831e-04
3.220000000000000284e+01,7.307000000000000994e-03,6.772502491693894490e-04
3.239999999999999858e+01,7.137199999999998927e-03,6.114500306648124137e-04
3.260000000000000142e+01,7.011399999999999230e-03,5.094210046709889920e-04
3.279999999999999716e+01,7.073999999999999559e-03,4.856345333684578317e-04
3.300000000000000000e+01,7.135600000000000623e-03,3.858404592574499192e-04
3.320000000000000284e+01,6.673000000000000112e-03,4.229940897932262900e-04
3.339999999999999858e+01,6.810799999999998799e-03,4.890200813872573431e-04
3.360000000000000142e+01,6.656999999999998856e-03,5.283912376260606640e-04
3.379999999999999716e+01,6.827200000000000282e-03,5.976417321439326039e-04
3.400000000000000000e+01,6.703000000000000624e-03,6.631573719713893932e-04
3.420000000000000284e+01,6.656800000000000044e-03,6.046777985009867649e-04
3.439999999999999858e+01,6.487799999999999297e-03,4.517473187524193262e-04
3.460000000000000142e+01,6.442399999999999169e-03,3.613951576875373221e-04
3.479999999999999716e+01,6.319599999999999870e-03,3.694447996656604802e-04
3.500000000000000000e+01,6.195999999999999251e-03,2.897547238614066648e-04
3.520000000000000284e+01,5.994799999999999782e-03,3.817677828209183641e-04
3.539999999999999858e+01,6.088000000000000529e-03,3.825799262899190869e-04
3.560000000000000142e+01,5.871600000000000256e-03,4.064985362827275186e-04
3.579999999999999716e+01,5.793799999999999992e-03,4.171940076271469784e-04
3.600000000000000000e+01,5.732600000000000022e-03,4.806866546930545691e-04
3.620000000000000284e+01,5.517199999999999882e-03,5.408085983044277466e-04
3.639999999999999858e+01,5.408999999999999746e-03,5.433730762560840108e-04
3.660000000000000142e+01,5.347400000000000417e-03,5.323238300132730836e-04
3.679999999999999716e+01,5.439999999999999523e-03,5.593036742235830321e-04
3.700000000000000000e+01,5.841000000000000705e-03,5.451788697299263199e-04
3.720000000000000284e+01,5.486199999999999237e-03,4.804086177411890247e-04
3.739999999999999858e+01,5.624999999999999792e-03,4.620502137214093133e-04
3.760000000000000142e+01,5.533599999999999630e-03,3.908298350945075780e-04
3.779999999999999716e+01,5.455600000000000553e-03,3.195485252665078175e-04
3.800000000000000000e+01,5.409399999999999972e-03,3.626483972114037170e-04
3.820000000000000284e+01,5.193999999999999832e-03,3.434229171153258681e-04
3.839999999999999858e+01,5.086000000000000243e-03,3.564094555423579272e-04
3.860000000000000142e+01,5.101599999999999538e-03,3.970816792550367950e-04
3.879999999999999716e+01,5.209599999999999995e-03,2.941906864603296610e-04
3.900000000000000000e+01,5.086399999999999602e-03,3.545719391040413611e-04
3.920000000000000284e+01,5.149000000000000798e-03,3.699064746662324046e-04
3.939999999999999858e+01,4.747800000000000804e-03,2.061539230769087903e-04
3.960000000000000142e+01,4.623000000000000373e-03,2.862090145330855066e-04
3.979999999999999716e+01,4.623399999999999732e-03,3.842106974044320108e-04
4.000000000000000000e+01,4.792800000000000706e-03,4.208742567561004396e-04
4.020000000000000284e+01,4.684400000000000022e-03,4.905651434824941049e-04
4.039999999999999858e+01,4.592599999999999634e-03,4.988015236544491183e-04
4.060000000000000142e+01,4.807800000000000094e-03,4.443646475587362233e-04
4.079999999999999716e+01,4.793200000000000065e-03,5.064987068098003326e-04
4.100000000000000000e+01,4.653599999999999924e-03,5.342799453470063221e-04
4.120000000000000284e+01,4.776600000000000637e-03,4.278803103672801649e-04
4.139999999999999858e+01,4.560800000000000270e-03,3.712507777769630582e-04
4.160000000000000142e+01,4.560400000000000911e-03,4.297111355317661955e-04
4.179999999999999716e+01,4.376199999999999361e-03,4.823661886990006213e-04
4.200000000000000000e+01,4.437599999999999878e-03,3.369871807650848847e-04
4.220000000000000284e+01,4.438199999999999784e-03,3.075516867129816012e-04
4.239999999999999858e+01,4.315000000000000259e-03,2.543711854750847615e-04
4.260000000000000142e+01,4.314799999999998845e-03,3.058351516748850692e-04
4.279999999999999716e+01,4.253000000000000703e-03,3.355105065418966621e-04
4.300000000000000000e+01,4.037600000000000564e-03,3.116624135182167782e-04
4.320000000000000284e+01,3.883599999999999639e-03,2.885520057112754447e-04
4.339999999999999858e+01,3.714199999999999967e-03,2.107119835225324683e-04
4.360000000000000142e+01,3.961000000000000978e-03,2.694258710666071394e-04
4.379999999999999716e+01,4.052999999999999312e-03,1.895660834643158698e-04
4.400000000000000000e+01,4.053400000000000405e-03,2.315810009478323794e-04
4.420000000000000284e+01,4.160200000000001050e-03,2.306032089976200333e-04
4.439999999999999858e+01,4.328799999999998968e-03,2.264966666421384044e-04
4.460000000000000142e+01,4.221200000000000473e-03,2.679467111199538556e-04
4.479999999999999716e+01,4.128600000000000499e-03,2.736096855010801778e-04
4.500000000000000000e+01,4.114600000000000375e-03,2.299875214006185547e-04
4.520000000000000284e+01,4.206999999999999802e-03,2.011718171116421447e-04
4.539999999999999858e+01,4.022600000000000307e-03,1.489441506068633274e-04
4.560000000000000142e+01,4.176000000000000892e-03,1.287683967439216489e-04
4.579999999999999716e+01,4.238000000000000447e-03,1.841184401411221857e-04
4.600000000000000000e+01,4.268799999999999678e-03,2.143798964455389774e-04
4.620000000000000284e+01,4.176399999999999384e-03,1.854132142000671022e-04
4.639999999999999858e+01,4.037999999999999923e-03,3.237457335626216281e-04
4.660000000000000142e+01,3.805800000000000242e-03,2.487829174199868393e-04
4.679999999999999716e+01,3.962000000000000244e-03,2.467425784091590462e-04
4.700000000000000000e+01,3.946199999999999534e-03,1.736261501041821433e-04
4.720000000000000284e+01,3.853800000000000107e-03,2.383991191258892531e-04
4.739999999999999858e+01,3.729999999999999809e-03,2.152851597300659079e-04
4.760000000000000142e+01,3.884799999999999885e-03,2.935279203074215486e-04
4.779999999999999716e+01,3.761800000000000040e-03,2.833360901826661570e-04
4.800000000000000000e+01,3.883799999999999752e-03,2.211848548160564828e-04
4.820000000000000284e+01,3.929799999999999786e-03,2.173560213106597906e-04
4.839999999999999858e+01,3.914199999999999624e-03,2.338275860543404287e-04
4.860000000000000142e+01,4.021799999999999854e-03,1.693500516681349362e-04
4.879999999999999716e+01,3.929199999999999880e-03,2.281471893317995833e-04
4.900000000000000000e+01,4.022200000000000081e-03,2.103685813043382452e-04
4.920000000000000284e+01,3.883199999999999846e-03,2.196254538982218363e-04
4.939999999999999858e+01,4.067600000000000209e-03,1.350720548448124450e-04
4.960000000000000142e+01,3.897400000000000950e-03,3.039048535314959926e-04
4.979999999999999716e+01,3.866599999999999985e-03,2.029705890024463609e-04
5.000000000000000000e+01,3.958999999999999846e-03,2.813572462191084528e-04
5.020000000000000284e+01,3.820600000000000385e-03,1.861425797607844999e-04
5.039999999999999858e+01,3.604399999999999792e-03,2.226727643875648396e-04
5.060000000000000142e+01,3.619599999999999727e-03,2.549707041995215914e-04
5.079999999999999716e+01,3.697999999999999898e-03,1.756268772141667185e-04
5.100000000000000000e+01,3.527799999999999773e-03,1.556885994541668515e-04
5.120000000000000284e+01,3.619800000000000274e-03,2.022627993477791393e-04
5.139999999999999858e+01,3.420000000000000297e-03,1.875601236937104663e-04
5.160000000000000142e+01,3.419399999999999523e-03,2.020516270659556053e-04
5.179999999999999716e+01,3.605200000000000245e-03,1.552254489444304783e-04
5.200000000000000000e+01,3.451600000000000414e-03,1.259819828388170852e-04
5.220000000000000284e+01,3.374599999999999735e-03,1.557332976598132688e-04
5.239999999999999858e+01,3.282799999999999781e-03,1.782252507362522991e-04
5.260000000000000142e+01,3.128399999999999931e-03,2.693578660444131208e-04
5.279999999999999716e+01,3.004999999999999859e-03,1.466734468129797595e-04
5.300000000000000000e+01,3.251400000000000210e-03,8.769469767323449631e-05
5.320000000000000284e+01,3.266400000000000033e-03,7.637643615670998019e-05
