timestep,H(t)_mean,H(t)_err
2.000000000000000111e-01,9.148925999999999448e-01,3.771134577285779606e-04
4.000000000000000222e-01,8.650318000000000174e-01,9.670517773108153452e-04
5.999999999999999778e-01,8.276445999999999525e-01,8.236784931027468911e-04
8.000000000000000444e-01,7.935602000000001599e-01,3.110748141524710773e-04
1.000000000000000000e+00,7.653497999999999690e-01,5.766931072936486592e-04
1.199999999999999956e+00,7.374876000000000209e-01,9.032061558691837017e-04
1.399999999999999911e+00,7.142403999999999975e-01,9.695111964283917218e-04
1.600000000000000089e+00,6.911572000000000271e-01,1.439438897626423627e-03
1.800000000000000044e+00,6.697530000000000427e-01,1.092010760020232975e-03
2.000000000000000000e+00,6.488277999999999546e-01,9.944950678610661298e-04
2.200000000000000178e+00,6.285608000000000306e-01,6.197817680442023686e-04
2.399999999999999911e+00,6.103598000000000079e-01,5.727711061148341729e-04
2.600000000000000089e+00,5.934786000000000783e-01,1.193423587834586659e-03
2.799999999999999822e+00,5.773934000000000566e-01,1.160869355267843276e-03
3.000000000000000000e+00,5.616820000000000146e-01,1.657065206924573930e-03
3.200000000000000178e+00,5.467303999999999498e-01,1.523869305419595175e-03
3.399999999999999911e+00,5.320154000000000272e-01,1.014916676382842352e-03
3.600000000000000089e+00,5.178002000000001548e-01,1.062506395274868563e-03
3.799999999999999822e+00,5.040849999999998943e-01,1.357949373135824978e-03
4.000000000000000000e+00,4.911305999999999727e-01,1.486311427662459191e-03
4.200000000000000178e+00,4.785443999999999809e-01,4.139877534420506036e-04
4.400000000000000355e+00,4.672452000000000827e-01,6.107065907618782494e-04
4.599999999999999645e+00,4.567045999999999606e-01,5.340103557048300840e-04
4.799999999999999822e+00,4.457668000000000186e-01,4.803087965049150122e-04
5.000000000000000000e+00,4.351080000000000503e-01,4.293771069817286980e-04
5.200000000000000178e+00,4.249218000000000162e-01,7.169583948877397651e-04
5.400000000000000355e+00,4.145012000000000141e-01,7.642522096795003120e-04
5.599999999999999645e+00,4.053784000000000276e-01,1.092541925968974282e-03
5.799999999999999822e+00,3.958494000000000179e-01,8.167443663717518371e-04
6.000000000000000000e+00,3.872881999999999714e-01,9.206767836760079227e-04
6.200000000000000178e+00,3.781465999999999439e-01,4.835581247378638444e-04
6.400000000000000355e+00,3.706891999999999965e-01,4.589291230680426917e-04
6.599999999999999645e+00,3.628977999999999926e-01,6.276853829746259755e-04
6.799999999999999822e+00,3.555597999999999814e-01,1.124701267003820615e-03
7.000000000000000000e+00,3.483374000000000192e-01,1.176750168897373796e-03
7.200000000000000178e+00,3.407232000000000038e-01,7.352873859927147289e-04
7.400000000000000355e+00,3.337040000000000561e-01,8.659736139167308446e-04
7.599999999999999645e+00,3.273177999999999921e-01,1.037580714932582722e-03
7.799999999999999822e+00,3.204342000000000024e-01,1.081225850597367175e-03
8.000000000000000000e+00,3.138074000000000141e-01,1.204639431531276611e-03
8.199999999999999289e+00,3.075356000000000201e-01,9.775179077643485117e-04
8.400000000000000355e+00,3.017079999999999762e-01,1.115615749261367499e-03
8.599999999999999645e+00,2.953974000000000322e-01,1.141924060522413143e-03
8.800000000000000711e+00,2.903416000000000330e-01,8.766650785790420326e-04
9.000000000000000000e+00,2.835547999999999957e-01,9.151846480355727790e-04
9.199999999999999289e+00,2.789477999999999680e-01,1.019979186062147962e-03
9.400000000000000355e+00,2.742630000000000345e-01,1.074174846102817589e-03
9.599999999999999645e+00,2.684721999999999942e-01,1.068666571012672709e-03
9.800000000000000711e+00,2.640500000000000069e-01,8.616633913541921425e-04
1.000000000000000000e+01,2.593768000000000185e-01,7.661776817422934161e-04
1.019999999999999929e+01,2.546486000000000027e-01,1.129549140143973774e-03
1.040000000000000036e+01,2.504085999999999812e-01,7.746573177863897526e-04
1.059999999999999964e+01,2.463837999999999862e-01,1.056583143912495897e-03
1.080000000000000071e+01,2.415624000000000104e-01,1.172188662289476956e-03
1.100000000000000000e+01,2.377904000000000129e-01,1.246517011516486053e-03
1.119999999999999929e+01,2.332628000000000201e-01,1.669353988823220510e-03
1.140000000000000036e+01,2.287205999999999961e-01,1.279475619150285265e-03
1.159999999999999964e+01,2.256844000000000072e-01,1.050887082421325105e-03
1.180000000000000071e+01,2.207538000000000000e-01,1.109662939815509244e-03
1.200000000000000000e+01,2.167121999999999937e-01,1.094159924325510160e-03
1.219999999999999929e+01,2.140135999999999983e-01,1.113265134637749301e-03
1.240000000000000036e+01,2.107433999999999696e-01,1.137889827707408907e-03
1.259999999999999964e+01,2.067660000000000053e-01,1.308774121076663414e-03
1.280000000000000071e+01,2.037373999999999852e-01,1.441577767586612636e-03
1.300000000000000000e+01,2.002051999999999998e-01,1.571299729523299802e-03
1.319999999999999929e+01,1.966481999999999952e-01,1.600670184641422378e-03
1.340000000000000036e+01,1.934156000000000208e-01,1.244367252863879704e-03
1.359999999999999964e+01,1.901366000000000167e-01,1.239367846928425944e-03
1.380000000000000071e+01,1.869991999999999766e-01,1.076958560019837833e-03
1.400000000000000000e+01,1.836505999999999972e-01,1.074077958064498500e-03
1.419999999999999929e+01,1.808922000000000030e-01,6.990739159774165623e-04
1.440000000000000036e+01,1.777966000000000268e-01,6.449374853425706529e-04
1.459999999999999964e+01,1.752300000000000246e-01,6.749111793414008234e-04
1.480000000000000071e+01,1.721233999999999820e-01,7.120477933397439908e-04
1.500000000000000000e+01,1.692839999999999900e-01,6.924136769302000581e-04
1.519999999999999929e+01,1.670144000000000073e-01,9.937277594995535483e-04
1.540000000000000036e+01,1.654498000000000080e-01,1.069284031490230985e-03
1.559999999999999964e+01,1.630948000000000120e-01,7.333391711888842014e-04
1.580000000000000071e+01,1.598457999999999823e-01,6.441195075449900487e-04
1.600000000000000000e+01,1.574610000000000176e-01,4.331596703295467711e-04
1.619999999999999929e+01,1.555042000000000091e-01,3.926381794986315656e-04
1.639999999999999858e+01,1.535849999999999993e-01,6.905182836102165744e-04
1.660000000000000142e+01,1.504474000000000089e-01,5.511612831104887103e-04
1.680000000000000071e+01,1.485973999999999906e-01,2.626898551524197204e-04
1.700000000000000000e+01,1.467077999999999993e-01,5.428625424543467078e-04
1.719999999999999929e+01,1.446856000000000253e-01,5.397731560572453704e-04
1.739999999999999858e+01,1.428412000000000015e-01,6.492980363438668025e-04
1.760000000000000142e+01,1.412872000000000017e-01,6.412375846751354686e-04
1.780000000000000071e+01,1.394680000000000086e-01,6.038619875435110749e-04
1.800000000000000000e+01,1.372803999999999969e-01,6.844000730566882421e-04
1.819999999999999929e+01,1.357220000000000093e-01,6.340529946305768685e-04
1.839999999999999858e+01,1.343238000000000210e-01,6.944297228661823734e-04
1.860000000000000142e+01,1.324031999999999987e-01,5.796008454100116296e-04
1.880000000000000071e+01,1.305645999999999751e-01,5.427090012152020358e-04
1.900000000000000000e+01,1.288634000000000168e-01,8.395395523738003862e-04
1.919999999999999929e+01,1.273637999999999992e-01,8.222321691590537326e-04
1.939999999999999858e+01,1.258579999999999699e-01,8.513624375082557913e-04
1.960000000000000142e+01,1.243213999999999986e-01,7.211839293827880916e-04
1.980000000000000071e+01,1.230042000000000080e-01,5.070235103030240132e-04
2.000000000000000000e+01,1.213624000000000092e-01,5.534311700654369467e-04
2.019999999999999929e+01,1.194886000000000142e-01,4.276295826997926681e-04
2.039999999999999858e+01,1.174835999999999936e-01,4.991792864292351334e-04
2.060000000000000142e+01,1.167354000000000031e-01,5.199544787767480542e-04
2.080000000000000071e+01,1.153969999999999996e-01,2.969863633233022220e-04
2.100000000000000000e+01,1.142057999999999962e-01,4.312764078870998238e-04
2.119999999999999929e+01,1.130136000000000057e-01,2.573702780042800621e-04
2.139999999999999858e+01,1.114997999999999961e-01,4.467944046202901591e-04
2.160000000000000142e+01,1.102433999999999914e-01,4.359552270589256125e-04
2.180000000000000071e+01,1.094118000000000174e-01,6.511414132122154671e-04
2.200000000000000000e+01,1.076037999999999994e-01,6.634629153162987462e-04
2.219999999999999929e+01,1.064471999999999918e-01,7.607648388299776288e-04
2.239999999999999858e+01,1.047136000000000039e-01,1.154350319443798404e-03
2.260000000000000142e+01,1.033387999999999945e-01,1.195869658449447539e-03
2.280000000000000071e+01,1.023799999999999988e-01,8.628131315644195498e-04
2.300000000000000000e+01,1.010865999999999987e-01,1.040562809252761674e-03
2.319999999999999929e+01,9.974659999999999083e-02,1.009312964347531139e-03
2.339999999999999858e+01,9.875780000000000669e-02,8.749336203392794496e-04
2.360000000000000142e+01,9.718620000000000037e-02,9.041017310015521868e-04
2.380000000000000071e+01,9.591760000000000563e-02,8.795600377461445770e-04
2.400000000000000000e+01,9.475100000000000189e-02,6.706140469748603488e-04
2.419999999999999929e+01,9.362420000000000464e-02,7.598035535584170708e-04
2.439999999999999858e+01,9.252699999999999814e-02,8.357076641984320263e-04
2.460000000000000142e+01,9.147240000000000926e-02,8.060831594816982200e-04
2.480000000000000071e+01,9.069520000000000359e-02,7.964680407900848972e-04
2.500000000000000000e+01,8.974799999999999445e-02,5.129280651319457953e-04
2.519999999999999929e+01,8.888240000000000030e-02,5.416075701095752646e-04
2.539999999999999858e+01,8.825380000000000724e-02,5.660948153798963647e-04
2.560000000000000142e+01,8.734139999999999959e-02,5.635925478570493526e-04
2.580000000000000071e+01,8.672459999999999891e-02,5.827673292146688579e-04
2.600000000000000000e+01,8.568820000000000603e-02,5.598168807744176821e-04
2.619999999999999929e+01,8.439560000000000117e-02,4.276122776534851217e-04
2.639999999999999858e+01,8.327420000000000655e-02,6.310525651639480862e-04
2.660000000000000142e+01,8.211700000000000943e-02,8.447448727278535551e-04
2.680000000000000071e+01,8.147680000000000200e-02,7.874704692875787075e-04
2.700000000000000000e+01,8.097899999999999543e-02,8.038596270493986000e-04
2.719999999999999929e+01,8.026639999999998776e-02,1.044650831617912603e-03
2.739999999999999858e+01,7.905779999999999752e-02,8.746533256096390534e-04
2.760000000000000142e+01,7.839480000000000059e-02,7.628961528281544236e-04
2.780000000000000071e+01,7.782540000000000291e-02,7.038076868008764572e-04
2.800000000000000000e+01,7.729880000000000084e-02,5.593304390072113613e-04
2.819999999999999929e+01,7.630220000000000058e-02,6.433650130369235548e-04
2.839999999999999858e+01,7.562059999999999615e-02,6.053798476989457255e-04
2.860000000000000142e+01,7.523540000000000783e-02,4.844011354239359263e-04
2.880000000000000071e+01,7.436259999999998704e-02,7.746093596129595242e-04
2.900000000000000000e+01,7.368120000000000225e-02,6.563526795862107853e-04
2.919999999999999929e+01,7.282779999999999809e-02,6.065905868046410701e-04
2.939999999999999858e+01,7.243639999999999801e-02,5.969893298878959980e-04
2.960000000000000142e+01,7.151820000000000399e-02,5.152569650184275415e-04
2.980000000000000071e+01,7.120440000000000103e-02,4.102887519784075747e-04
3.000000000000000000e+01,7.041640000000000399e-02,4.492361962264396582e-04
3.019999999999999929e+01,6.979919999999999181e-02,5.335732751928266111e-04
3.039999999999999858e+01,6.892840000000000078e-02,3.263842214323493286e-04
3.060000000000000142e+01,6.793899999999999939e-02,2.403944674904134079e-04
3.080000000000000071e+01,6.748300000000000132e-02,2.891731315319596312e-04
3.100000000000000000e+01,6.695480000000000875e-02,2.159549490055746445e-04
3.119999999999999929e+01,6.655060000000000142e-02,4.378856700098778735e-04
3.139999999999999858e+01,6.581560000000000188e-02,5.139678589172681951e-04
3.160000000000000142e+01,6.553080000000000016e-02,6.178012139839147510e-04
3.180000000000000071e+01,6.454139999999999877e-02,4.871486015580864574e-04
3.200000000000000000e+01,6.434059999999999779e-02,2.725875272274950849e-04
3.220000000000000284e+01,6.367540000000000699e-02,5.010549470866443702e-04
3.239999999999999858e+01,6.276840000000000197e-02,5.431991899846683658e-04
3.260000000000000142e+01,6.205019999999998592e-02,5.728529828847897217e-04
3.279999999999999716e+01,6.163500000000000922e-02,6.800869797312708229e-04
3.300000000000000000e+01,6.058679999999999621e-02,5.492648177336683681e-04
3.320000000000000284e+01,5.996420000000000222e-02,4.996953471866623191e-04
3.339999999999999858e+01,5.968060000000000725e-02,3.392206656440609159e-04
3.360000000000000142e+01,5.901700000000000695e-02,4.021376629961439901e-04
3.379999999999999716e+01,5.834740000000000759e-02,4.319338606777665913e-04
3.400000000000000000e+01,5.821699999999999792e-02,1.232688119517668616e-04
3.420000000000000284e+01,5.731660000000000921e-02,1.043995210716995429e-04
3.439999999999999858e+01,5.687640000000000751e-02,2.930103411144390109e-04
3.460000000000000142e+01,5.628980000000000095e-02,4.268727445035586446e-04
3.479999999999999716e+01,5.578560000000000463e-02,3.926090421780934099e-04
3.500000000000000000e+01,5.549559999999999910e-02,4.100264137833070643e-04
3.520000000000000284e+01,5.495059999999999528e-02,3.593358596076933636e-04
3.539999999999999858e+01,5.467079999999999856e-02,4.748429635153074207e-04
3.560000000000000142e+01,5.417860000000000037e-02,4.195382700064444019e-04
3.579999999999999716e+01,5.394079999999999708e-02,5.560713443435112745e-04
3.600000000000000000e+01,5.369239999999999430e-02,4.815908637007140867e-04
3.620000000000000284e+01,5.299279999999999269e-02,4.003133023020842584e-04
3.639999999999999858e+01,5.247759999999999925e-02,4.040852137854090173e-04
3.660000000000000142e+01,5.205599999999999117e-02,5.181031750530003168e-04
3.679999999999999716e+01,5.190799999999999581e-02,4.540093611369700561e-04
3.700000000000000000e+01,5.180700000000000582e-02,4.221627648194476432e-04
3.720000000000000284e+01,5.136280000000000012e-02,4.235808541471147519e-04
3.739999999999999858e+01,5.099000000000000060e-02,3.124504760758098289e-04
3.760000000000000142e+01,5.039120000000000404e-02,3.524653741858904915e-04
3.779999999999999716e+01,4.963900000000000257e-02,1.862726496295151338e-04
3.800000000000000000e+01,4.905260000000000176e-02,1.656184168503007498e-04
3.820000000000000284e+01,4.874479999999999785e-02,2.900293778223169685e-04
3.839999999999999858e+01,4.825179999999999747e-02,2.385387599531786998e-04
3.860000000000000142e+01,4.795560000000000100e-02,3.700915562398041808e-04
3.879999999999999716e+01,4.752839999999999843e-02,2.470620569816415601e-04
3.900000000000000000e+01,4.705980000000000579e-02,3.330689718361644976e-04
3.920000000000000284e+01,4.682840000000000613e-02,2.833811214601285517e-04
3.939999999999999858e+01,4.649140000000000217e-02,2.169146375881532169e-04
3.960000000000000142e+01,4.618899999999999395e-02,2.185971180047901379e-04
3.979999999999999716e+01,4.570839999999999625e-02,2.466237214868028239e-04
4.000000000000000000e+01,4.547719999999999541e-02,2.737415569474243573e-04
4.020000000000000284e+01,4.515660000000000507e-02,3.007571445535420630e-04
4.039999999999999858e+01,4.477199999999999930e-02,2.935597043192412613e-04
4.060000000000000142e+01,4.431480000000000141e-02,4.180810208560056134e-04
4.079999999999999716e+01,4.391119999999999746e-02,4.236321989650926778e-04
4.100000000000000000e+01,4.408259999999999956e-02,5.993392695293709924e-04
4.120000000000000284e+01,4.350260000000000238e-02,3.680447798841872203e-04
4.139999999999999858e+01,4.310479999999999867e-02,5.639229025318972122e-04
4.160000000000000142e+01,4.264860000000000873e-02,4.462322937663742561e-04
4.179999999999999716e+01,4.194379999999999636e-02,4.267937909576478665e-04
4.200000000000000000e+01,4.167099999999999971e-02,3.496900055763676497e-04
4.220000000000000284e+01,4.151080000000000048e-02,2.375490265187375218e-04
4.239999999999999858e+01,4.126180000000000125e-02,1.949906151587817442e-04
4.260000000000000142e+01,4.091860000000000636e-02,2.814417524106904516e-04
4.279999999999999716e+01,4.049780000000000740e-02,4.326896578380395658e-04
4.300000000000000000e+01,4.015400000000000219e-02,2.839311536270712043e-04
4.320000000000000284e+01,4.033780000000000004e-02,2.494436609737762716e-04
4.339999999999999858e+01,3.982720000000000010e-02,3.349418456986232224e-04
4.360000000000000142e+01,3.913280000000000231e-02,4.389345509298624225e-04
4.379999999999999716e+01,3.879540000000000072e-02,4.722862055999517612e-04
4.400000000000000000e+01,3.850440000000000806e-02,4.720247451140668882e-04
4.420000000000000284e+01,3.824459999999999665e-02,5.941738466139356726e-04
4.439999999999999858e+01,3.784759999999999514e-02,4.850868582017038447e-04
4.460000000000000142e+01,3.739099999999999369e-02,4.492157610770131939e-04
4.479999999999999716e+01,3.747340000000000393e-02,3.711707962650073658e-04
4.500000000000000000e+01,3.736040000000000194e-02,4.531370212198515004e-04
4.520000000000000284e+01,3.673839999999999745e-02,4.911678531825964394e-04
4.539999999999999858e+01,3.647140000000000104e-02,4.632703962050678330e-04
4.560000000000000142e+01,3.620460000000000345e-02,4.719689184681550112e-04
4.579999999999999716e+01,3.599239999999999384e-02,3.763406169947645431e-04
4.600000000000000000e+01,3.641379999999999617e-02,4.021604654861042367e-04
4.620000000000000284e+01,3.624239999999999406e-02,4.055188774890753820e-04
4.639999999999999858e+01,3.581480000000000080e-02,3.093863927195243083e-04
4.660000000000000142e+01,3.561240000000000239e-02,3.413093318384361049e-04
4.679999999999999716e+01,3.516160000000000119e-02,2.821651289582041071e-04
4.700000000000000000e+01,3.488919999999999522e-02,2.172789451373518480e-04
4.720000000000000284e+01,3.454519999999999119e-02,1.380870739787044637e-04
4.739999999999999858e+01,3.427899999999999697e-02,1.619854931776300701e-04
4.760000000000000142e+01,3.435039999999999621e-02,3.985767931026592712e-04
4.779999999999999716e+01,3.432659999999999878e-02,2.806160366051805547e-04
4.800000000000000000e+01,3.401219999999999938e-02,3.497229474884370570e-04
4.820000000000000284e+01,3.365740000000000398e-02,4.187502358208291327e-04
4.839999999999999858e+01,3.356220000000000037e-02,3.702734665082007322e-04
4.860000000000000142e+01,3.294559999999999850e-02,2.971705907387208823e-04
4.879999999999999716e+01,3.309959999999999986e-02,2.869661304056633625e-04
4.900000000000000000e+01,3.267240000000000422e-02,2.353075859380654574e-04
4.920000000000000284e+01,3.229300000000000226e-02,2.538627581982045678e-04
4.939999999999999858e+01,3.218600000000000627e-02,2.270803822438212860e-04
4.960000000000000142e+01,3.193660000000000249e-02,2.451190731052971207e-04
4.979999999999999716e+01,3.188900000000000068e-02,2.811311082039837528e-04
5.000000000000000000e+01,3.165199999999999958e-02,1.426064514669653032e-04
5.020000000000000284e+01,3.108920000000000086e-02,1.248344503732837154e-04
5.039999999999999858e+01,3.115440000000000570e-02,1.491581710802324296e-04
5.060000000000000142e+01,3.091019999999999879e-02,2.129684014120400936e-04
5.079999999999999716e+01,3.064360000000000001e-02,3.177282801388629308e-04
5.100000000000000000e+01,3.059620000000000048e-02,2.822278157800887921e-04
5.120000000000000284e+01,3.061460000000000223e-02,2.887013335611736766e-04
5.139999999999999858e+01,3.018159999999999593e-02,2.872564359592309573e-04
5.160000000000000142e+01,2.998559999999999420e-02,2.822212961489616164e-04
5.179999999999999716e+01,2.993799999999999933e-02,2.206014505845325057e-04
5.200000000000000000e+01,2.989059999999999981e-02,1.897004480753804320e-04
5.220000000000000284e+01,2.966019999999999768e-02,3.229870585642707860e-04
5.239999999999999858e+01,2.952839999999999979e-02,4.163206216367377707e-04
5.260000000000000142e+01,2.920280000000000098e-02,4.338837862838387988e-04
5.279999999999999716e+01,2.903760000000000369e-02,2.344264490197295824e-04
5.300000000000000000e+01,2.880579999999999946e-02,4.443263890430099259e-04
5.320000000000000284e+01,2.863379999999999745e-02,2.871350553311104018e-04
