timestep,H(t)_mean,H(t)_err
2.000000000000000111e-01,9.210300000000000153e-01,1.488595882031127715e-03
4.000000000000000222e-01,8.795482000000000022e-01,1.396470851826120407e-03
5.999999999999999778e-01,8.418080000000000007e-01,9.044632109710077977e-04
8.000000000000000444e-01,8.109702000000000854e-01,1.932122754899405015e-03
1.000000000000000000e+00,7.839941999999999744e-01,1.645337728249109642e-03
1.199999999999999956e+00,7.591622000000000092e-01,1.818918288434087259e-03
1.399999999999999911e+00,7.361378000000000643e-01,2.187677316242051060e-03
1.600000000000000089e+00,7.131834000000000229e-01,2.342659036223580099e-03
1.800000000000000044e+00,6.949284000000000017e-01,1.621820908731913665e-03
2.000000000000000000e+00,6.741781999999998387e-01,2.437052592784977670e-03
2.200000000000000178e+00,6.567247999999999974e-01,3.060149283940249206e-03
2.399999999999999911e+00,6.415278000000000924e-01,2.360409994047636684e-03
2.600000000000000089e+00,6.240217999999999599e-01,4.039373025606815028e-03
2.799999999999999822e+00,6.104412000000000171e-01,4.744589670350854264e-03
3.000000000000000000e+00,5.957079999999999043e-01,4.066094600473524334e-03
3.200000000000000178e+00,5.832611999999999242e-01,3.181993060960380988e-03
3.399999999999999911e+00,5.716278000000000192e-01,2.767931852484804920e-03
3.600000000000000089e+00,5.584187999999999930e-01,2.835112332871479821e-03
3.799999999999999822e+00,5.487515999999998950e-01,2.716291158915033060e-03
4.000000000000000000e+00,5.378403999999999963e-01,2.471654660343958546e-03
4.200000000000000178e+00,5.233651999999999749e-01,3.490127195389880477e-03
4.400000000000000355e+00,5.124641999999999253e-01,2.486795516322149943e-03
4.599999999999999645e+00,5.026014000000000870e-01,3.610227258774711869e-03
4.799999999999999822e+00,4.923467999999999734e-01,3.582003090450918727e-03
5.000000000000000000e+00,4.820981999999999768e-01,2.952317486314776952e-03
5.200000000000000178e+00,4.742446000000000161e-01,3.704493468748461596e-03
5.400000000000000355e+00,4.634489999999999443e-01,3.261153967539713854e-03
5.599999999999999645e+00,4.553853999999999402e-01,3.162503922527210541e-03
5.799999999999999822e+00,4.492919999999999692e-01,3.548308188418812254e-03
6.000000000000000000e+00,4.413261999999999463e-01,2.863568497521935471e-03
6.200000000000000178e+00,4.339118000000000142e-01,2.435450623601306038e-03
6.400000000000000355e+00,4.244057999999999997e-01,4.004235537527720337e-03
6.599999999999999645e+00,4.158554000000000417e-01,2.681978105801760808e-03
6.799999999999999822e+00,4.082447999999999633e-01,3.208969965580859944e-03
7.000000000000000000e+00,4.015045999999999893e-01,2.369306662295952298e-03
7.200000000000000178e+00,3.905266000000000015e-01,3.082814623035281805e-04
7.400000000000000355e+00,3.841957999999999762e-01,9.174960163401290779e-04
7.599999999999999645e+00,3.763217999999999841e-01,1.097119747338456443e-03
7.799999999999999822e+00,3.701073999999999198e-01,2.132272698319800583e-03
8.000000000000000000e+00,3.640789999999999860e-01,1.197140885610374714e-03
8.199999999999999289e+00,3.600717999999999419e-01,1.502374434021032552e-03
8.400000000000000355e+00,3.535865999999999731e-01,1.848663154822970589e-03
8.599999999999999645e+00,3.465639999999999832e-01,1.960194556670330664e-03
8.800000000000000711e+00,3.414933999999999470e-01,1.724055497946627019e-03
9.000000000000000000e+00,3.381699999999999706e-01,3.421013387872077864e-03
9.199999999999999289e+00,3.310737999999999737e-01,2.026769878402582756e-03
9.400000000000000355e+00,3.256341999999999848e-01,1.941740440944662903e-03
9.599999999999999645e+00,3.205493999999999843e-01,1.429220088020031294e-03
9.800000000000000711e+00,3.165436000000000361e-01,1.749739740647160294e-03
1.000000000000000000e+01,3.136091999999999769e-01,1.989508014560383790e-03
1.019999999999999929e+01,3.080229999999999912e-01,2.455228237863028157e-03
1.040000000000000036e+01,3.030483999999999956e-01,2.184730660745165358e-03
1.059999999999999964e+01,2.968096000000000068e-01,2.233948737102084588e-03
1.080000000000000071e+01,2.929518000000000399e-01,2.382960541007760665e-03
1.100000000000000000e+01,2.890782000000000074e-01,1.465366281855835177e-03
1.119999999999999929e+01,2.844288000000000372e-01,1.762181386804434870e-03
1.140000000000000036e+01,2.810100000000000375e-01,2.396534748339768268e-03
1.159999999999999964e+01,2.779217999999999966e-01,2.198505205815988722e-03
1.180000000000000071e+01,2.734637999999999791e-01,2.003222888247832307e-03
1.200000000000000000e+01,2.704927999999999777e-01,1.735150293202293147e-03
1.219999999999999929e+01,2.666707999999999856e-01,1.034343724300581819e-03
1.240000000000000036e+01,2.618386000000000324e-01,2.032599606415391811e-03
1.259999999999999964e+01,2.572860000000000147e-01,3.064459544520049122e-03
1.280000000000000071e+01,2.562600000000000433e-01,2.519869758539126144e-03
1.300000000000000000e+01,2.502969999999999917e-01,2.111733056046620222e-03
1.319999999999999929e+01,2.432703999999999700e-01,2.025734153337994167e-03
1.340000000000000036e+01,2.395869999999999944e-01,1.828251268288909239e-03
1.359999999999999964e+01,2.359023999999999843e-01,1.674791766160795958e-03
1.380000000000000071e+01,2.321797999999999917e-01,1.449888871603616410e-03
1.400000000000000000e+01,2.281672000000000422e-01,9.262602442078612204e-04
1.419999999999999929e+01,2.246902000000000066e-01,1.904320781801217442e-03
1.440000000000000036e+01,2.231607999999999925e-01,2.410869312094709397e-03
1.459999999999999964e+01,2.204028000000000098e-01,1.900087008534081601e-03
1.480000000000000071e+01,2.155512000000000261e-01,1.712967699637098174e-03
1.500000000000000000e+01,2.154954000000000036e-01,1.237635350173869019e-03
1.519999999999999929e+01,2.123340000000000227e-01,1.014359650222741802e-03
1.540000000000000036e+01,2.123763999999999930e-01,1.513389890279432390e-03
1.559999999999999964e+01,2.088378000000000179e-01,1.622064283559684081e-03
1.580000000000000071e+01,2.062911999999999801e-01,1.551920081705238314e-03
1.600000000000000000e+01,2.021365999999999996e-01,1.174982706255713830e-03
1.619999999999999929e+01,1.994340000000000002e-01,4.676968034955966387e-04
1.639999999999999858e+01,1.956751999999999936e-01,1.359830813005793353e-03
1.660000000000000142e+01,1.937300000000000133e-01,1.960714742128491592e-03
1.680000000000000071e+01,1.912040000000000128e-01,2.011500882425856177e-03
1.700000000000000000e+01,1.888810000000000211e-01,2.239682857013467355e-03
1.719999999999999929e+01,1.881349999999999967e-01,2.179363095034878971e-03
1.739999999999999858e+01,1.859087999999999852e-01,2.199114694598715194e-03
1.760000000000000142e+01,1.820905999999999914e-01,2.112689413993455462e-03
1.780000000000000071e+01,1.810322000000000320e-01,2.579920626686021522e-03
1.800000000000000000e+01,1.785239999999999883e-01,2.780850589298173269e-03
1.819999999999999929e+01,1.767888000000000237e-01,2.458962838271455155e-03
1.839999999999999858e+01,1.738654000000000033e-01,2.664325291701445490e-03
1.860000000000000142e+01,1.720343999999999762e-01,1.725364703475759697e-03
1.880000000000000071e+01,1.709729999999999861e-01,2.456247361321737231e-03
1.900000000000000000e+01,1.695742000000000083e-01,1.798526241120767828e-03
1.919999999999999929e+01,1.665914000000000006e-01,1.965842252063984899e-03
1.939999999999999858e+01,1.654718000000000022e-01,1.916200887172326336e-03
1.960000000000000142e+01,1.616460000000000119e-01,1.306457232365453285e-03
1.980000000000000071e+01,1.614702000000000359e-01,2.100567004406191790e-03
2.000000000000000000e+01,1.596057999999999921e-01,2.285080029233109086e-03
2.019999999999999929e+01,1.576080000000000259e-01,1.745782317472598100e-03
2.039999999999999858e+01,1.556491999999999876e-01,1.715670463696332285e-03
2.060000000000000142e+01,1.559301999999999910e-01,1.643979847808360465e-03
2.080000000000000071e+01,1.545413999999999954e-01,2.105589171704682749e-03
2.100000000000000000e+01,1.498063999999999785e-01,3.015025996571173844e-03
2.119999999999999929e+01,1.473260000000000125e-01,2.522030293235986466e-03
2.139999999999999858e+01,1.461667999999999856e-01,2.684135976436363442e-03
2.160000000000000142e+01,1.461235999999999924e-01,2.743996913263567483e-03
2.180000000000000071e+01,1.449551999999999785e-01,2.364422897875929994e-03
2.200000000000000000e+01,1.424902000000000113e-01,2.553513410969287991e-03
2.219999999999999929e+01,1.417904000000000109e-01,2.942898955112121552e-03
2.239999999999999858e+01,1.398231999999999808e-01,2.461957664136409790e-03
2.260000000000000142e+01,1.378661999999999943e-01,2.828292318696918294e-03
2.280000000000000071e+01,1.365227999999999997e-01,2.670741795831262783e-03
2.300000000000000000e+01,1.342412000000000050e-01,2.841614688869692745e-03
2.319999999999999929e+01,1.334055999999999853e-01,2.477158989649233794e-03
2.339999999999999858e+01,1.316399999999999793e-01,3.102385195297323491e-03
2.360000000000000142e+01,1.302492000000000094e-01,3.133112260995447873e-03
2.380000000000000071e+01,1.289388000000000201e-01,2.605940816672553100e-03
2.400000000000000000e+01,1.273761999999999950e-01,4.174151283794108949e-03
2.419999999999999929e+01,1.275607999999999742e-01,4.069771018128661572e-03
2.439999999999999858e+01,1.274659999999999960e-01,3.707587841171131916e-03
2.460000000000000142e+01,1.258944000000000174e-01,4.421284514708368092e-03
2.480000000000000071e+01,1.257041999999999882e-01,3.996586661139730524e-03
2.500000000000000000e+01,1.245802000000000020e-01,3.377520664629602831e-03
2.519999999999999929e+01,1.227151999999999965e-01,3.082886089364962872e-03
2.539999999999999858e+01,1.197832000000000063e-01,3.192652962662870676e-03
2.560000000000000142e+01,1.195482000000000211e-01,3.091085204260794837e-03
2.580000000000000071e+01,1.194394000000000011e-01,2.578416230944880882e-03
2.600000000000000000e+01,1.180804000000000020e-01,2.361926345168281413e-03
2.619999999999999929e+01,1.181373999999999896e-01,2.718291036662556087e-03
2.639999999999999858e+01,1.163232000000000016e-01,2.426700669633565129e-03
2.660000000000000142e+01,1.141350000000000142e-01,2.576030667519314549e-03
2.680000000000000071e+01,1.124562000000000062e-01,2.776533349340505608e-03
2.700000000000000000e+01,1.106390000000000012e-01,2.576119620669818037e-03
2.719999999999999929e+01,1.093401999999999985e-01,2.729646852616653130e-03
2.739999999999999858e+01,1.083035999999999860e-01,2.295051515761682703e-03
2.760000000000000142e+01,1.072766000000000136e-01,2.252209106632861637e-03
2.780000000000000071e+01,1.075564000000000242e-01,2.416906195945553101e-03
2.800000000000000000e+01,1.064980000000000093e-01,2.731754527771483067e-03
2.819999999999999929e+01,1.043971999999999956e-01,2.276018374266781941e-03
2.839999999999999858e+01,1.040299999999999975e-01,2.618169837882944068e-03
2.860000000000000142e+01,1.028643999999999947e-01,2.647112173671526889e-03
2.880000000000000071e+01,1.020135999999999959e-01,2.170011903193160355e-03
2.900000000000000000e+01,1.015425999999999968e-01,2.168144842947535011e-03
2.919999999999999929e+01,9.963520000000000709e-02,1.928593798600418581e-03
2.939999999999999858e+01,9.946320000000000161e-02,1.988217402599625969e-03
2.960000000000000142e+01,9.782079999999999942e-02,9.815306108318770390e-04
2.980000000000000071e+01,9.717739999999999712e-02,2.008942721931115255e-03
3.000000000000000000e+01,9.545139999999999181e-02,1.390111240153103648e-03
3.019999999999999929e+01,9.540339999999999931e-02,1.505883315532782589e-03
3.039999999999999858e+01,9.498639999999999861e-02,1.474245454461365354e-03
3.060000000000000142e+01,9.429260000000000419e-02,2.225295477009738097e-03
3.080000000000000071e+01,9.331459999999999755e-02,1.841715575217844989e-03
3.100000000000000000e+01,9.256240000000001689e-02,1.539107488124204530e-03
3.119999999999999929e+01,9.069420000000000259e-02,1.149892925450018066e-03
3.139999999999999858e+01,9.023420000000001440e-02,2.255393965585613270e-03
3.160000000000000142e+01,8.948619999999998798e-02,1.846132915041600762e-03
3.180000000000000071e+01,8.957999999999999297e-02,1.610927683044771847e-03
3.200000000000000000e+01,8.711460000000000037e-02,1.258992041277466048e-03
3.220000000000000284e+01,8.678260000000001528e-02,1.124292426373137794e-03
3.239999999999999858e+01,8.644480000000001607e-02,8.716215577875530661e-04
3.260000000000000142e+01,8.556699999999999029e-02,1.023028787473745762e-03
3.279999999999999716e+01,8.570719999999999728e-02,1.279333748480044339e-03
3.300000000000000000e+01,8.498360000000000636e-02,2.079132501790108625e-03
3.320000000000000284e+01,8.395539999999998559e-02,1.914273611582209328e-03
3.339999999999999858e+01,8.441460000000000630e-02,1.388334563424824340e-03
3.360000000000000142e+01,8.311620000000000119e-02,1.318037381867448454e-03
3.379999999999999716e+01,8.274819999999999398e-02,1.568118343748327835e-03
3.400000000000000000e+01,8.259880000000000000e-02,1.228366370428627926e-03
3.420000000000000284e+01,8.088679999999999481e-02,1.632159593912312556e-03
3.439999999999999858e+01,8.061480000000001422e-02,2.116052088205770156e-03
3.460000000000000142e+01,7.949639999999999485e-02,2.164884098514282401e-03
3.479999999999999716e+01,7.753840000000000732e-02,1.949774463880374472e-03
3.500000000000000000e+01,7.781580000000000441e-02,2.093251666666004918e-03
3.520000000000000284e+01,7.664940000000000642e-02,1.796746854734966722e-03
3.539999999999999858e+01,7.627980000000000871e-02,2.158640322054602035e-03
3.560000000000000142e+01,7.451159999999999728e-02,2.306767058027314223e-03
3.579999999999999716e+01,7.409499999999999420e-02,2.088575758740868378e-03
3.600000000000000000e+01,7.428260000000000418e-02,2.155237773425475525e-03
3.620000000000000284e+01,7.348499999999999477e-02,1.978163542278543480e-03
3.639999999999999858e+01,7.442160000000000442e-02,2.559539130390468386e-03
3.660000000000000142e+01,7.484620000000000162e-02,2.913565811853235151e-03
3.679999999999999716e+01,7.358620000000000438e-02,2.739163657031100287e-03
3.700000000000000000e+01,7.325579999999999592e-02,2.350270269564757025e-03
3.720000000000000284e+01,7.372139999999999249e-02,2.219103233290420883e-03
3.739999999999999858e+01,7.353519999999999501e-02,2.329675157613180989e-03
3.760000000000000142e+01,7.218279999999999141e-02,2.410706398547944520e-03
3.779999999999999716e+01,7.102259999999999129e-02,2.788008762540031792e-03
3.800000000000000000e+01,6.985739999999998617e-02,2.533598993526796610e-03
3.820000000000000284e+01,6.883399999999999241e-02,2.707874461639608356e-03
3.839999999999999858e+01,6.804299999999999238e-02,2.547927706980715468e-03
3.860000000000000142e+01,6.901500000000000690e-02,1.943626301530210904e-03
3.879999999999999716e+01,6.705360000000000487e-02,1.584747853760970840e-03
3.900000000000000000e+01,6.658459999999999379e-02,1.303991434020944406e-03
3.920000000000000284e+01,6.608780000000000210e-02,2.200398063987513749e-03
3.939999999999999858e+01,6.627020000000000133e-02,1.814686650636964695e-03
3.960000000000000142e+01,6.542340000000000655e-02,1.466460452927388245e-03
3.979999999999999716e+01,6.579880000000000451e-02,1.948635378925468254e-03
4.000000000000000000e+01,6.471799999999999775e-02,1.175068721394624408e-03
4.020000000000000284e+01,6.476820000000001187e-02,1.271981265585306504e-03
4.039999999999999858e+01,6.476960000000001050e-02,1.481764373981233783e-03
4.060000000000000142e+01,6.337500000000000078e-02,1.450898583637050959e-03
4.079999999999999716e+01,6.267500000000000848e-02,1.657005069394779009e-03
4.100000000000000000e+01,6.304460000000000619e-02,1.938993620412402842e-03
4.120000000000000284e+01,6.206360000000001043e-02,1.694310083780417369e-03
4.139999999999999858e+01,6.299019999999999619e-02,1.357457012210698880e-03
4.160000000000000142e+01,6.257460000000000799e-02,1.535012723074307773e-03
4.179999999999999716e+01,6.145799999999999874e-02,2.140250148931193992e-03
4.200000000000000000e+01,6.127180000000000820e-02,1.953980025486443377e-03
4.220000000000000284e+01,6.090380000000000793e-02,1.714868665525146963e-03
4.239999999999999858e+01,6.002380000000000215e-02,2.467775666465653241e-03
4.260000000000000142e+01,5.992779999999999635e-02,2.420784509203576049e-03
4.279999999999999716e+01,5.947059999999999846e-02,2.830912231066163697e-03
4.300000000000000000e+01,5.816719999999999530e-02,2.926512692608730388e-03
4.320000000000000284e+01,5.746700000000000419e-02,2.511115369711236413e-03
4.339999999999999858e+01,5.760039999999999605e-02,2.697076613668955569e-03
4.360000000000000142e+01,5.740640000000000326e-02,2.460533287724431944e-03
4.379999999999999716e+01,5.820699999999999485e-02,2.333612349984461216e-03
4.400000000000000000e+01,5.699919999999999293e-02,1.854230120562170821e-03
4.420000000000000284e+01,5.615559999999999302e-02,2.054758345888878582e-03
4.439999999999999858e+01,5.513839999999999714e-02,2.561834627761909976e-03
4.460000000000000142e+01,5.471420000000000450e-02,2.022090685404587945e-03
4.479999999999999716e+01,5.456720000000000320e-02,1.683200712927605336e-03
4.500000000000000000e+01,5.387039999999999884e-02,1.699796946696869064e-03
4.520000000000000284e+01,5.401120000000000226e-02,1.836899327671497268e-03
4.539999999999999858e+01,5.382240000000000635e-02,1.711941546899308636e-03
4.560000000000000142e+01,5.424699999999998967e-02,1.887994835798021982e-03
4.579999999999999716e+01,5.214900000000000091e-02,2.057578844175843823e-03
4.600000000000000000e+01,5.191220000000000556e-02,1.858198681519282556e-03
4.620000000000000284e+01,5.126640000000000363e-02,2.204218741413836984e-03
4.639999999999999858e+01,5.108239999999999309e-02,2.160862480585008794e-03
4.660000000000000142e+01,4.985860000000000292e-02,1.758989670236865872e-03
4.679999999999999716e+01,5.037139999999999673e-02,2.055226084887013058e-03
4.700000000000000000e+01,4.935080000000000716e-02,1.886512109688140860e-03
4.720000000000000284e+01,4.823139999999999372e-02,2.102769331144050974e-03
4.739999999999999858e+01,4.804380000000001150e-02,1.872354384191197638e-03
4.760000000000000142e+01,4.752720000000000555e-02,1.784772461688043706e-03
4.779999999999999716e+01,4.719999999999999890e-02,1.434296552321031410e-03
4.800000000000000000e+01,4.710539999999999866e-02,1.814101364312369806e-03
4.820000000000000284e+01,4.772640000000000216e-02,2.337889702274254054e-03
4.839999999999999858e+01,4.721299999999999109e-02,1.877363390502754864e-03
4.860000000000000142e+01,4.604860000000000203e-02,1.498616181682288712e-03
4.879999999999999716e+01,4.618639999999999551e-02,1.456893290532975402e-03
4.900000000000000000e+01,4.562720000000000664e-02,1.594765637954367876e-03
4.920000000000000284e+01,4.549120000000000247e-02,1.963136149124661278e-03
4.939999999999999858e+01,4.581539999999999224e-02,2.391997253342905121e-03
4.960000000000000142e+01,4.540220000000000367e-02,2.505944420772336645e-03
4.979999999999999716e+01,4.582039999999999724e-02,2.589682752771080114e-03
5.000000000000000000e+01,4.516799999999999982e-02,2.465518282227897612e-03
5.020000000000000284e+01,4.470120000000000343e-02,2.539193679103664714e-03
5.039999999999999858e+01,4.450919999999999876e-02,2.135091998017884466e-03
5.060000000000000142e+01,4.400319999999999926e-02,1.973393331295107168e-03
5.079999999999999716e+01,4.357099999999999168e-02,1.559034733416801623e-03
5.100000000000000000e+01,4.301719999999999849e-02,1.843946213966123201e-03
5.120000000000000284e+01,4.296799999999999231e-02,1.575298320953843730e-03
5.139999999999999858e+01,4.361819999999999586e-02,1.531550012242499127e-03
5.160000000000000142e+01,4.375339999999999785e-02,1.594079784703388404e-03
5.179999999999999716e+01,4.239760000000000056e-02,1.714288207974376662e-03
5.200000000000000000e+01,4.244979999999999587e-02,1.772557344629504530e-03
5.220000000000000284e+01,4.286759999999999876e-02,1.878334677313923647e-03
5.239999999999999858e+01,4.236000000000000182e-02,1.694187681456809161e-03
5.260000000000000142e+01,4.212720000000000353e-02,1.758200312819901620e-03
5.279999999999999716e+01,4.129139999999999894e-02,1.563204932182597501e-03
5.300000000000000000e+01,4.128479999999999650e-02,1.319140720317585856e-03
5.320000000000000284e+01,4.091479999999999423e-02,1.145376985974486768e-03
