timestep,H(t)_mean,H(t)_err
2.000000000000000111e-01,9.116756000000000304e-01,5.014179494194483198e-04
4.000000000000000222e-01,8.617520000000000735e-01,1.002003093807598416e-03
5.999999999999999778e-01,8.216289999999999427e-01,6.352442050109456976e-04
8.000000000000000444e-01,7.885234000000000965e-01,4.820309741085209961e-04
1.000000000000000000e+00,7.590438000000000462e-01,3.653026690294062227e-04
1.199999999999999956e+00,7.315061999999998843e-01,2.284065235495735488e-04
1.399999999999999911e+00,7.069480000000000208e-01,5.315374869188496448e-04
1.600000000000000089e+00,6.837064000000000474e-01,6.874725885444408916e-04
1.800000000000000044e+00,6.619418000000000246e-01,4.976253008037228795e-04
2.000000000000000000e+00,6.412818000000000129e-01,6.397185631197473956e-04
2.200000000000000178e+00,6.223408000000000273e-01,3.765254838653019423e-04
2.399999999999999911e+00,6.044037999999999355e-01,6.298154809148380495e-04
2.600000000000000089e+00,5.870796000000000348e-01,7.117875104270792591e-04
2.799999999999999822e+00,5.700474000000000929e-01,6.311130326652941757e-04
3.000000000000000000e+00,5.542754000000000847e-01,1.673719211815461708e-04
3.200000000000000178e+00,5.391004000000000351e-01,4.958330969187077540e-04
3.399999999999999911e+00,5.246206000000001035e-01,7.785599270448054611e-04
3.600000000000000089e+00,5.105750000000000011e-01,6.273789126197884926e-04
3.799999999999999822e+00,4.974057999999999535e-01,8.101289033234080651e-04
4.000000000000000000e+00,4.843316000000000843e-01,6.805659850448013155e-04
4.200000000000000178e+00,4.721949999999999759e-01,8.307857726273336482e-04
4.400000000000000355e+00,4.604537999999999687e-01,7.680210543988937261e-04
4.599999999999999645e+00,4.491979999999999862e-01,5.696521745767368829e-04
4.799999999999999822e+00,4.380221999999999727e-01,8.771353031317402193e-04
5.000000000000000000e+00,4.277104000000000461e-01,5.817579049742243767e-04
5.200000000000000178e+00,4.176751999999999687e-01,5.261952489333287294e-04
5.400000000000000355e+00,4.077997999999999901e-01,4.256853767749167413e-04
5.599999999999999645e+00,3.982648000000000299e-01,6.992474812253550919e-04
5.799999999999999822e+00,3.896779999999999133e-01,8.409176535190592341e-04
6.000000000000000000e+00,3.804064000000000334e-01,7.897453133764031777e-04
6.200000000000000178e+00,3.721044000000000573e-01,8.132405302246073974e-04
6.400000000000000355e+00,3.634062000000000126e-01,5.369823460785311513e-04
6.599999999999999645e+00,3.550265999999999700e-01,5.032010135124925527e-04
6.799999999999999822e+00,3.476893999999999818e-01,4.216134011152888146e-04
7.000000000000000000e+00,3.404298000000000046e-01,4.704995642931009982e-04
7.200000000000000178e+00,3.339249999999999718e-01,5.342695948676081654e-04
7.400000000000000355e+00,3.268119999999999914e-01,7.118292632366311464e-04
7.599999999999999645e+00,3.196214000000000555e-01,6.893338523531255613e-04
7.799999999999999822e+00,3.134480000000000044e-01,8.072282205175951818e-04
8.000000000000000000e+00,3.072654000000000218e-01,9.789901735972647134e-04
8.199999999999999289e+00,3.009298000000000251e-01,7.510604103532576761e-04
8.400000000000000355e+00,2.946056000000000230e-01,8.217295540504746540e-04
8.599999999999999645e+00,2.884280000000000177e-01,8.622339009804688443e-04
8.800000000000000711e+00,2.823667999999999734e-01,9.595078634383359803e-04
9.000000000000000000e+00,2.770439999999999570e-01,7.859620855995539963e-04
9.199999999999999289e+00,2.718119999999999981e-01,7.680009765618707766e-04
9.400000000000000355e+00,2.667591999999999741e-01,7.672175310822836698e-04
9.599999999999999645e+00,2.621068000000000286e-01,9.632529470497302494e-04
9.800000000000000711e+00,2.570765999999999885e-01,1.014310928660435698e-03
1.000000000000000000e+01,2.521994000000000180e-01,8.639459821076812818e-04
1.019999999999999929e+01,2.477272000000000085e-01,8.859357425908476668e-04
1.040000000000000036e+01,2.430956000000000228e-01,1.109428979250138420e-03
1.059999999999999964e+01,2.388491999999999837e-01,1.050046541825643822e-03
1.080000000000000071e+01,2.348225999999999924e-01,8.628851951447514624e-04
1.100000000000000000e+01,2.307619999999999671e-01,7.942910675564714054e-04
1.119999999999999929e+01,2.267697999999999658e-01,8.651832984980673555e-04
1.140000000000000036e+01,2.227272000000000141e-01,8.959588383402427962e-04
1.159999999999999964e+01,2.184947999999999890e-01,8.090621978562599539e-04
1.180000000000000071e+01,2.148754000000000219e-01,6.229624868320705498e-04
1.200000000000000000e+01,2.112035999999999913e-01,7.864746404048903643e-04
1.219999999999999929e+01,2.077327999999999952e-01,7.494274080923395360e-04
1.240000000000000036e+01,2.037818000000000129e-01,6.292805733534100705e-04
1.259999999999999964e+01,2.005577999999999805e-01,6.308825881255554534e-04
1.280000000000000071e+01,1.971170000000000144e-01,7.214940055191042039e-04
1.300000000000000000e+01,1.941602000000000050e-01,5.292313671731858600e-04
1.319999999999999929e+01,1.910229999999999984e-01,3.831438372204383361e-04
1.340000000000000036e+01,1.879798000000000024e-01,3.251906210209608338e-04
1.359999999999999964e+01,1.849273999999999918e-01,3.833406579010359763e-04
1.380000000000000071e+01,1.818472000000000144e-01,2.041287338911402496e-04
1.400000000000000000e+01,1.791449999999999987e-01,4.119139473239508630e-04
1.419999999999999929e+01,1.766458000000000195e-01,3.998192591659384268e-04
1.440000000000000036e+01,1.737190000000000123e-01,5.572049892095336764e-04
1.459999999999999964e+01,1.708401999999999976e-01,4.386564031220773277e-04
1.480000000000000071e+01,1.684172000000000169e-01,6.966291265802771176e-04
1.500000000000000000e+01,1.658245999999999887e-01,7.277431277586921769e-04
1.519999999999999929e+01,1.634854000000000029e-01,7.496095383598034992e-04
1.540000000000000036e+01,1.612261999999999862e-01,5.589723070063503827e-04
1.559999999999999964e+01,1.588595999999999897e-01,4.828454825303833014e-04
1.580000000000000071e+01,1.563337999999999950e-01,7.935367918376561676e-04
1.600000000000000000e+01,1.542140000000000177e-01,7.459200359287839963e-04
1.619999999999999929e+01,1.518405999999999922e-01,6.608858146457688649e-04
1.639999999999999858e+01,1.495859999999999690e-01,4.361577696201229533e-04
1.660000000000000142e+01,1.476840000000000097e-01,4.759630237739075759e-04
1.680000000000000071e+01,1.451891999999999905e-01,5.483425389298194480e-04
1.700000000000000000e+01,1.433142000000000027e-01,6.533364676795547178e-04
1.719999999999999929e+01,1.413363999999999732e-01,4.418020597507443196e-04
1.739999999999999858e+01,1.394958000000000031e-01,3.187518470534715653e-04
1.760000000000000142e+01,1.374907999999999964e-01,4.802630945638034898e-04
1.780000000000000071e+01,1.355471999999999788e-01,4.551128870950609581e-04
1.800000000000000000e+01,1.336586000000000163e-01,4.049697025704494953e-04
1.819999999999999929e+01,1.319758000000000320e-01,3.973229668670076012e-04
1.839999999999999858e+01,1.302927999999999864e-01,3.922128758722748460e-04
1.860000000000000142e+01,1.285053999999999919e-01,5.880671390241082579e-04
1.880000000000000071e+01,1.266369999999999996e-01,5.011984636847966216e-04
1.900000000000000000e+01,1.250457999999999847e-01,6.719734667380842423e-04
1.919999999999999929e+01,1.235462000000000088e-01,6.916641815216370602e-04
1.939999999999999858e+01,1.220345999999999931e-01,6.537796723667686554e-04
1.960000000000000142e+01,1.205850000000000116e-01,5.648247515822935917e-04
1.980000000000000071e+01,1.190459999999999852e-01,4.013064913504405147e-04
2.000000000000000000e+01,1.173792000000000169e-01,3.469437130140866311e-04
2.019999999999999929e+01,1.154176000000000091e-01,3.934785381694913412e-04
2.039999999999999858e+01,1.139701999999999937e-01,4.002246119368490888e-04
2.060000000000000142e+01,1.127695999999999976e-01,3.969015747008328350e-04
2.080000000000000071e+01,1.114686000000000010e-01,4.911260123430630275e-04
2.100000000000000000e+01,1.099255999999999983e-01,5.480849021821328259e-04
2.119999999999999929e+01,1.085854000000000125e-01,4.480426988580431084e-04
2.139999999999999858e+01,1.071928000000000047e-01,4.465454512140939352e-04
2.160000000000000142e+01,1.057185999999999959e-01,3.669840051010405161e-04
2.180000000000000071e+01,1.044607999999999925e-01,3.564184899805265859e-04
2.200000000000000000e+01,1.029288000000000008e-01,3.734374646443482343e-04
2.219999999999999929e+01,1.019298000000000010e-01,3.875635947815526255e-04
2.239999999999999858e+01,1.007180000000000020e-01,2.883102495576605703e-04
2.260000000000000142e+01,9.969100000000000183e-02,4.692685798133075081e-04
2.280000000000000071e+01,9.826239999999999974e-02,4.726780722648339043e-04
2.300000000000000000e+01,9.733400000000000385e-02,4.625757235307528976e-04
2.319999999999999929e+01,9.608800000000000674e-02,6.240931020288568694e-04
2.339999999999999858e+01,9.484879999999999700e-02,6.125619478877212956e-04
2.360000000000000142e+01,9.377419999999998812e-02,6.560081097059692690e-04
2.380000000000000071e+01,9.279080000000000661e-02,7.383804845741793544e-04
2.400000000000000000e+01,9.178059999999998997e-02,8.031475954019919646e-04
2.419999999999999929e+01,9.092940000000000744e-02,5.514325525392940784e-04
2.439999999999999858e+01,8.970899999999999708e-02,5.965893897816152043e-04
2.460000000000000142e+01,8.867739999999998957e-02,5.235000095510983957e-04
2.480000000000000071e+01,8.798259999999999414e-02,5.427301907946533539e-04
2.500000000000000000e+01,8.690319999999999989e-02,3.955821532880376534e-04
2.519999999999999929e+01,8.595679999999999987e-02,5.292986302646177175e-04
2.539999999999999858e+01,8.500579999999999248e-02,5.534081134208278761e-04
2.560000000000000142e+01,8.415279999999999982e-02,5.452457611022747119e-04
2.580000000000000071e+01,8.328140000000000542e-02,5.593491396256920854e-04
2.600000000000000000e+01,8.242199999999999527e-02,4.845336933588833737e-04
2.619999999999999929e+01,8.148200000000001275e-02,4.736500818114570705e-04
2.639999999999999858e+01,8.064759999999999984e-02,5.631307663411755328e-04
2.660000000000000142e+01,7.969640000000000057e-02,5.858747818433561244e-04
2.680000000000000071e+01,7.887560000000000404e-02,5.380252410435799795e-04
2.700000000000000000e+01,7.793799999999999339e-02,4.281066455919601914e-04
2.719999999999999929e+01,7.703279999999999850e-02,4.701565058573570904e-04
2.739999999999999858e+01,7.621419999999999584e-02,5.012710244967293711e-04
2.760000000000000142e+01,7.544819999999999305e-02,5.864477299811110718e-04
2.780000000000000071e+01,7.489699999999999136e-02,5.399447193926427795e-04
2.800000000000000000e+01,7.422960000000000669e-02,5.913321063497237011e-04
2.819999999999999929e+01,7.332400000000000029e-02,6.276856697424275378e-04
2.839999999999999858e+01,7.273879999999999235e-02,7.029898576793269750e-04
2.860000000000000142e+01,7.189520000000000632e-02,6.819517871521397785e-04
2.880000000000000071e+01,7.118159999999999765e-02,5.258466126162644185e-04
2.900000000000000000e+01,7.047760000000000136e-02,4.926230404680643138e-04
2.919999999999999929e+01,6.994700000000000917e-02,4.551978690635550195e-04
2.939999999999999858e+01,6.934080000000000799e-02,4.636932606799458304e-04
2.960000000000000142e+01,6.847419999999999896e-02,4.301659447236620237e-04
2.980000000000000071e+01,6.785960000000000603e-02,4.278161521027443247e-04
3.000000000000000000e+01,6.723280000000000922e-02,3.891921633332309565e-04
3.019999999999999929e+01,6.650779999999999192e-02,3.883907053470774169e-04
3.039999999999999858e+01,6.578080000000000038e-02,2.668095575499500154e-04
3.060000000000000142e+01,6.533259999999999068e-02,1.476006775052200943e-04
3.080000000000000071e+01,6.461039999999999839e-02,1.750490217053481687e-04
3.100000000000000000e+01,6.411180000000001045e-02,2.631475631656119427e-04
3.119999999999999929e+01,6.355359999999998788e-02,1.709372984459506446e-04
3.139999999999999858e+01,6.274199999999999222e-02,1.107506207657546043e-04
3.160000000000000142e+01,6.215899999999999898e-02,1.133979717631669902e-04
3.180000000000000071e+01,6.190999999999999975e-02,1.510079468107557599e-04
3.200000000000000000e+01,6.133399999999999963e-02,2.535594604821518562e-04
3.220000000000000284e+01,6.073720000000000507e-02,2.123731150593217380e-04
3.239999999999999858e+01,6.038500000000000117e-02,1.773036942649524326e-04
3.260000000000000142e+01,5.968520000000000769e-02,1.995631228458812404e-04
3.279999999999999716e+01,5.931020000000000042e-02,2.662980285319443215e-04
3.300000000000000000e+01,5.877740000000000048e-02,2.003388629297860231e-04
3.320000000000000284e+01,5.807099999999999762e-02,1.981577654294682011e-04
3.339999999999999858e+01,5.742839999999999057e-02,1.357930778795445753e-04
3.360000000000000142e+01,5.687280000000000113e-02,1.046787466489738390e-04
3.379999999999999716e+01,5.639020000000000143e-02,1.241895325701803114e-04
3.400000000000000000e+01,5.589399999999999924e-02,1.987551257200677421e-04
3.420000000000000284e+01,5.561760000000000315e-02,3.337471498005643291e-04
3.439999999999999858e+01,5.495660000000000128e-02,2.875019304283016352e-04
3.460000000000000142e+01,5.449239999999999640e-02,2.951139779813894532e-04
3.479999999999999716e+01,5.398680000000000145e-02,2.814052949039872235e-04
3.500000000000000000e+01,5.363060000000000743e-02,2.675570219598054204e-04
3.520000000000000284e+01,5.320539999999999992e-02,3.529071549288842979e-04
3.539999999999999858e+01,5.249879999999999824e-02,3.874144292614823044e-04
3.560000000000000142e+01,5.198180000000000162e-02,4.270228799490726379e-04
3.579999999999999716e+01,5.138759999999999856e-02,3.906805088560221179e-04
3.600000000000000000e+01,5.119120000000000614e-02,2.358703881372139685e-04
3.620000000000000284e+01,5.056459999999999427e-02,2.777010262854642461e-04
3.639999999999999858e+01,4.992180000000000228e-02,3.385735370639584630e-04
3.660000000000000142e+01,4.949680000000000052e-02,3.926186954285291759e-04
3.679999999999999716e+01,4.920399999999999774e-02,3.191596779043366270e-04
3.700000000000000000e+01,4.887480000000000296e-02,3.031942281772526029e-04
3.720000000000000284e+01,4.840859999999999608e-02,2.084841960437289578e-04
3.739999999999999858e+01,4.799679999999999225e-02,3.447666457185207390e-04
3.760000000000000142e+01,4.772919999999999940e-02,3.147286767995573285e-04
3.779999999999999716e+01,4.723980000000000540e-02,3.252418177295164094e-04
3.800000000000000000e+01,4.697240000000000443e-02,2.552973952080198256e-04
3.820000000000000284e+01,4.654019999999999685e-02,2.682652418782577731e-04
3.839999999999999858e+01,4.630459999999999438e-02,3.990806434794857407e-04
3.860000000000000142e+01,4.611479999999999746e-02,3.719996505374698406e-04
3.879999999999999716e+01,4.562340000000000145e-02,4.225357499667928567e-04
3.900000000000000000e+01,4.520980000000000137e-02,2.867220605394707857e-04
3.920000000000000284e+01,4.467680000000000262e-02,3.643045978298926056e-04
3.939999999999999858e+01,4.433179999999999760e-02,3.465379344314268271e-04
3.960000000000000142e+01,4.413960000000000106e-02,3.477356179628418717e-04
3.979999999999999716e+01,4.377380000000000160e-02,4.123388654977849809e-04
4.000000000000000000e+01,4.362500000000000405e-02,4.244388059544039276e-04
4.020000000000000284e+01,4.325940000000000341e-02,3.728555484366561225e-04
4.039999999999999858e+01,4.284100000000000408e-02,4.300205809028214299e-04
4.060000000000000142e+01,4.260540000000000160e-02,3.894765204733141150e-04
4.079999999999999716e+01,4.225320000000000464e-02,4.095526095631671793e-04
4.100000000000000000e+01,4.206580000000000041e-02,4.033444433731545758e-04
4.120000000000000284e+01,4.186900000000000344e-02,5.410696812795924527e-04
4.139999999999999858e+01,4.148280000000000023e-02,4.822178345934545756e-04
4.160000000000000142e+01,4.130179999999999269e-02,4.241471914324083264e-04
4.179999999999999716e+01,4.112619999999999471e-02,4.568635901448037996e-04
4.200000000000000000e+01,4.065500000000000363e-02,3.962168598129057312e-04
4.220000000000000284e+01,4.040379999999999666e-02,3.797630050439354597e-04
4.239999999999999858e+01,4.016560000000000269e-02,4.380524626115001323e-04
4.260000000000000142e+01,3.995079999999999465e-02,3.997054415441448163e-04
4.279999999999999716e+01,3.953259999999999413e-02,3.264030637111114313e-04
4.300000000000000000e+01,3.932879999999999709e-02,3.487743396524454293e-04
4.320000000000000284e+01,3.909080000000000193e-02,3.663328268119036397e-04
4.339999999999999858e+01,3.869339999999999585e-02,3.502662701431589923e-04
4.360000000000000142e+01,3.833659999999999846e-02,2.992281069685797344e-04
4.379999999999999716e+01,3.809880000000000211e-02,3.807049251060455261e-04
4.400000000000000000e+01,3.775359999999999827e-02,3.744285779691499706e-04
4.420000000000000284e+01,3.768720000000000403e-02,3.261819124353770773e-04
4.439999999999999858e+01,3.749960000000000099e-02,3.388482846348792434e-04
4.460000000000000142e+01,3.711119999999999697e-02,3.910549066307687782e-04
4.479999999999999716e+01,3.694859999999999811e-02,3.649273352326464089e-04
4.500000000000000000e+01,3.679320000000000507e-02,3.457438936554046950e-04
4.520000000000000284e+01,3.659420000000000034e-02,2.468066854848145492e-04
4.539999999999999858e+01,3.647299999999999848e-02,1.925159733632512559e-04
4.560000000000000142e+01,3.618719999999999576e-02,3.215551896642317555e-04
4.579999999999999716e+01,3.609120000000000383e-02,2.663271296732650320e-04
4.600000000000000000e+01,3.569119999999999931e-02,2.723678395112018509e-04
4.620000000000000284e+01,3.557659999999999989e-02,3.390555411728286080e-04
4.639999999999999858e+01,3.525879999999999986e-02,4.051013947149526679e-04
4.660000000000000142e+01,3.492740000000000428e-02,3.231998762375989519e-04
4.679999999999999716e+01,3.455019999999999619e-02,2.626498429468404204e-04
4.700000000000000000e+01,3.421419999999999323e-02,2.696965702414477989e-04
4.720000000000000284e+01,3.397599999999999926e-02,2.030487626162744629e-04
4.739999999999999858e+01,3.386879999999999752e-02,3.076074446433303450e-04
4.760000000000000142e+01,3.368800000000000266e-02,3.378295428170839730e-04
4.779999999999999716e+01,3.344100000000000544e-02,3.465319610079274984e-04
4.800000000000000000e+01,3.304559999999999442e-02,2.241286684027727250e-04
4.820000000000000284e+01,3.269819999999999671e-02,1.781674493278714497e-04
4.839999999999999858e+01,3.260659999999999947e-02,1.582329295690379132e-04
4.860000000000000142e+01,3.257480000000000098e-02,1.296797594075491903e-04
4.879999999999999716e+01,3.235299999999999981e-02,1.521939552019065155e-04
4.900000000000000000e+01,3.197339999999999904e-02,1.676897730930540379e-04
4.920000000000000284e+01,3.177460000000000007e-02,1.691713923806274441e-04
4.939999999999999858e+01,3.179279999999999606e-02,2.226718212976222468e-04
4.960000000000000142e+01,3.158239999999999659e-02,1.497813740089188413e-04
4.979999999999999716e+01,3.137659999999999755e-02,1.374171022835216885e-04
5.000000000000000000e+01,3.117979999999999710e-02,1.537291124023031140e-04
5.020000000000000284e+01,3.111380000000000395e-02,1.472831965975758984e-04
5.039999999999999858e+01,3.079119999999999774e-02,2.340090596536811395e-04
5.060000000000000142e+01,3.060600000000000126e-02,2.001267098615275113e-04
5.079999999999999716e+01,3.049639999999999990e-02,2.656022590265378854e-04
5.100000000000000000e+01,3.018540000000000112e-02,2.074489334752047641e-04
5.120000000000000284e+01,3.006640000000000007e-02,2.627659795331199082e-04
5.139999999999999858e+01,2.983559999999999685e-02,2.121515024693437974e-04
5.160000000000000142e+01,2.955459999999999685e-02,2.101572268564658370e-04
5.179999999999999716e+01,2.937140000000000237e-02,2.001323562045875283e-04
5.200000000000000000e+01,2.915879999999999514e-02,1.374494088746836679e-04
5.220000000000000284e+01,2.891400000000000220e-02,1.058517831687312555e-04
5.239999999999999858e+01,2.881799999999999987e-02,9.336112681410796421e-05
5.260000000000000142e+01,2.874499999999999972e-02,1.028644739450895236e-04
5.279999999999999716e+01,2.875399999999999484e-02,1.553457434241443589e-04
5.300000000000000000e+01,2.838819999999999538e-02,1.277823931533607826e-04
5.320000000000000284e+01,2.826940000000000008e-02,2.534718130285890732e-04
