timestep,H(t)_mean,H(t)_err
2.000000000000000111e-01,9.183099999999999596e-01,1.139440696131219970e-03
4.000000000000000222e-01,8.700689999999999813e-01,9.492008744201714488e-04
5.999999999999999778e-01,8.327605999999999620e-01,1.972097375891974144e-03
8.000000000000000444e-01,7.991492000000000040e-01,1.521755873982415805e-03
1.000000000000000000e+00,7.723923999999999790e-01,2.099804505186137534e-03
1.199999999999999956e+00,7.487523999999999846e-01,1.132154256274294337e-03
1.399999999999999911e+00,7.231011999999999995e-01,5.969915744798961121e-04
1.600000000000000089e+00,6.995240000000000347e-01,6.413986279997955587e-04
1.800000000000000044e+00,6.798450000000000326e-01,2.085586656075457800e-03
2.000000000000000000e+00,6.614649999999999697e-01,2.124331330089533100e-03
2.200000000000000178e+00,6.414174000000000264e-01,1.909597041262903108e-03
2.399999999999999911e+00,6.230809999999999960e-01,2.748792243877304971e-03
2.600000000000000089e+00,6.068134000000000583e-01,1.970154425419480895e-03
2.799999999999999822e+00,5.895458000000000087e-01,1.613442543135639416e-03
3.000000000000000000e+00,5.741667999999998662e-01,1.110121903216042044e-03
3.200000000000000178e+00,5.580365999999999937e-01,1.449109781900594042e-03
3.399999999999999911e+00,5.482389999999999208e-01,2.022865294575989896e-03
3.600000000000000089e+00,5.339492000000000127e-01,1.548759419664652668e-03
3.799999999999999822e+00,5.214442000000000244e-01,2.168019704707510424e-03
4.000000000000000000e+00,5.102075999999999834e-01,1.811979155509231380e-03
4.200000000000000178e+00,4.967914000000000496e-01,1.134275962894388265e-03
4.400000000000000355e+00,4.865823999999999705e-01,7.273017668065977865e-04
4.599999999999999645e+00,4.744118000000000501e-01,1.224738641506838708e-03
4.799999999999999822e+00,4.639312000000000435e-01,1.695849179614740106e-03
5.000000000000000000e+00,4.540408000000000222e-01,4.828103561441092332e-04
5.200000000000000178e+00,4.457016000000000311e-01,9.008554046016448245e-04
5.400000000000000355e+00,4.352479999999999682e-01,8.564982194961089220e-04
5.599999999999999645e+00,4.266177999999999915e-01,7.040670706686970835e-04
5.799999999999999822e+00,4.181460000000000177e-01,1.077886311259217307e-03
6.000000000000000000e+00,4.076005999999999796e-01,8.656776882881997903e-04
6.200000000000000178e+00,3.993726000000000220e-01,1.439138791083059048e-03
6.400000000000000355e+00,3.914368000000000292e-01,1.479800371671806478e-03
6.599999999999999645e+00,3.821004000000000067e-01,8.443571874509030054e-04
6.799999999999999822e+00,3.752267999999999715e-01,1.385412083100187033e-03
7.000000000000000000e+00,3.666028000000000064e-01,1.426067018060515586e-03
7.200000000000000178e+00,3.616720000000000490e-01,1.496626573330842036e-03
7.400000000000000355e+00,3.542547999999999808e-01,1.373706751821507539e-03
7.599999999999999645e+00,3.475308000000000286e-01,1.242191023957262301e-03
7.799999999999999822e+00,3.393248000000000375e-01,9.248142191813402179e-04
8.000000000000000000e+00,3.341638000000000108e-01,1.286730173734960698e-03
8.199999999999999289e+00,3.276207999999999898e-01,1.348126270050401150e-03
8.400000000000000355e+00,3.209224000000000521e-01,1.615562149841349689e-03
8.599999999999999645e+00,3.170252000000000070e-01,1.609130522984385248e-03
8.800000000000000711e+00,3.095143999999999673e-01,2.166090639839431294e-03
9.000000000000000000e+00,3.041510000000000047e-01,2.034141563411949634e-03
9.199999999999999289e+00,2.975960000000000272e-01,1.980704723072071634e-03
9.400000000000000355e+00,2.921304000000000123e-01,2.046566285269055870e-03
9.599999999999999645e+00,2.869037999999999866e-01,1.817664529004185377e-03
9.800000000000000711e+00,2.813592000000000315e-01,1.600712510102926924e-03
1.000000000000000000e+01,2.755507999999999846e-01,1.805772421984565322e-03
1.019999999999999929e+01,2.720888000000000195e-01,1.549541267601472865e-03
1.040000000000000036e+01,2.682879999999999709e-01,1.474260662162567639e-03
1.059999999999999964e+01,2.636990000000000167e-01,1.898118779212730435e-03
1.080000000000000071e+01,2.587287999999999810e-01,1.656340436021535786e-03
1.100000000000000000e+01,2.559673999999999561e-01,1.366595243662145544e-03
1.119999999999999929e+01,2.529413999999999829e-01,1.202285556762615381e-03
1.140000000000000036e+01,2.474606000000000028e-01,1.495569476821456646e-03
1.159999999999999964e+01,2.430086000000000190e-01,1.570988083977721854e-03
1.180000000000000071e+01,2.393932000000000004e-01,1.384097518240676433e-03
1.200000000000000000e+01,2.357426000000000244e-01,1.252073663967100082e-03
1.219999999999999929e+01,2.328372000000000219e-01,1.865408786298597237e-03
1.240000000000000036e+01,2.295930000000000193e-01,1.965759217198278109e-03
1.259999999999999964e+01,2.256509999999999905e-01,1.336860089912179960e-03
1.280000000000000071e+01,2.216520000000000157e-01,1.879142197919038892e-03
1.300000000000000000e+01,2.188400000000000067e-01,1.419058525924845292e-03
1.319999999999999929e+01,2.145995999999999737e-01,1.307278264180966642e-03
1.340000000000000036e+01,2.118672000000000055e-01,1.474591482411314377e-03
1.359999999999999964e+01,2.078746000000000205e-01,1.075387399963380255e-03
1.380000000000000071e+01,2.052065999999999890e-01,1.553741793220481679e-03
1.400000000000000000e+01,2.022832000000000241e-01,1.370974594950614663e-03
1.419999999999999929e+01,1.987578000000000122e-01,1.584369193086002233e-03
1.440000000000000036e+01,1.951258000000000159e-01,1.327280769091456012e-03
1.459999999999999964e+01,1.923623999999999890e-01,1.491721911081285608e-03
1.480000000000000071e+01,1.902081999999999939e-01,1.522081417007644559e-03
1.500000000000000000e+01,1.870160000000000156e-01,1.683129406789626512e-03
1.519999999999999929e+01,1.839104000000000017e-01,1.651090597150862852e-03
1.540000000000000036e+01,1.826911999999999980e-01,1.825312285610328732e-03
1.559999999999999964e+01,1.794010000000000049e-01,2.045149187712230320e-03
1.580000000000000071e+01,1.767395999999999967e-01,1.782051980162194455e-03
1.600000000000000000e+01,1.750649999999999706e-01,1.800801932473421272e-03
1.619999999999999929e+01,1.728320000000000412e-01,1.417106523871792525e-03
1.639999999999999858e+01,1.708381999999999956e-01,1.684272614513459112e-03
1.660000000000000142e+01,1.669255999999999796e-01,1.861056866406828048e-03
1.680000000000000071e+01,1.636835999999999847e-01,2.075555578634308198e-03
1.700000000000000000e+01,1.611057999999999935e-01,1.931627717755156522e-03
1.719999999999999929e+01,1.591796000000000322e-01,1.947545881359409245e-03
1.739999999999999858e+01,1.570061999999999847e-01,2.097215997459487332e-03
1.760000000000000142e+01,1.552870000000000084e-01,1.472217103555039817e-03
1.780000000000000071e+01,1.531184000000000156e-01,1.487057853615653819e-03
1.800000000000000000e+01,1.510910000000000031e-01,2.056336378124938233e-03
1.819999999999999929e+01,1.495306000000000135e-01,2.028130336048449868e-03
1.839999999999999858e+01,1.465029999999999943e-01,2.314197852388596814e-03
1.860000000000000142e+01,1.453548000000000062e-01,1.748426847197217951e-03
1.880000000000000071e+01,1.446004000000000178e-01,2.035128806734357466e-03
1.900000000000000000e+01,1.432872000000000035e-01,1.713241413228148210e-03
1.919999999999999929e+01,1.413838000000000039e-01,1.712161598681622094e-03
1.939999999999999858e+01,1.393807999999999991e-01,1.808233154214356148e-03
1.960000000000000142e+01,1.360851999999999895e-01,1.679488892490808068e-03
1.980000000000000071e+01,1.347505999999999982e-01,1.427109477230109353e-03
2.000000000000000000e+01,1.341728000000000087e-01,1.157489585266318092e-03
2.019999999999999929e+01,1.317048000000000108e-01,1.215753568779462303e-03
2.039999999999999858e+01,1.295180000000000220e-01,9.929494951909695246e-04
2.060000000000000142e+01,1.285194000000000059e-01,9.123878890033579802e-04
2.080000000000000071e+01,1.273539999999999950e-01,1.178438331012701375e-03
2.100000000000000000e+01,1.265146000000000048e-01,8.751104273176051442e-04
2.119999999999999929e+01,1.250963999999999965e-01,1.232176959693696014e-03
2.139999999999999858e+01,1.231063999999999908e-01,1.416700589397773980e-03
2.160000000000000142e+01,1.220708000000000071e-01,1.838527329141452765e-03
2.180000000000000071e+01,1.207872000000000112e-01,1.844698712527331709e-03
2.200000000000000000e+01,1.193742000000000136e-01,1.491469221941907168e-03
2.219999999999999929e+01,1.177954000000000223e-01,1.155957551123743205e-03
2.239999999999999858e+01,1.172552000000000039e-01,1.511248702232694278e-03
2.260000000000000142e+01,1.167472000000000093e-01,9.656581900444905506e-04
2.280000000000000071e+01,1.152622000000000091e-01,9.805705176069686238e-04
2.300000000000000000e+01,1.135708000000000134e-01,6.154922745250350101e-04
2.319999999999999929e+01,1.118311999999999917e-01,5.148451611892644044e-04
2.339999999999999858e+01,1.104325999999999919e-01,5.558838547754378938e-04
2.360000000000000142e+01,1.090365999999999974e-01,4.802755042681239534e-04
2.380000000000000071e+01,1.076703999999999856e-01,7.024377979579425439e-04
2.400000000000000000e+01,1.066325999999999941e-01,6.801209892364753823e-04
2.419999999999999929e+01,1.047938000000000064e-01,7.479540360209302723e-04
2.439999999999999858e+01,1.035091999999999957e-01,9.355964087147839326e-04
2.460000000000000142e+01,1.024938000000000099e-01,8.524024518969901395e-04
2.480000000000000071e+01,1.016197999999999962e-01,1.203524091989852671e-03
2.500000000000000000e+01,1.010397999999999852e-01,1.333846632863014024e-03
2.519999999999999929e+01,1.007133999999999946e-01,1.435858997255649947e-03
2.539999999999999858e+01,9.873660000000000769e-02,1.432061157911909991e-03
2.560000000000000142e+01,9.885199999999999543e-02,1.600011718707085090e-03
2.580000000000000071e+01,9.797899999999999665e-02,1.291900808885883744e-03
2.600000000000000000e+01,9.632260000000000821e-02,9.132310003498566708e-04
2.619999999999999929e+01,9.525300000000000433e-02,9.075972675146191850e-04
2.639999999999999858e+01,9.364440000000000264e-02,6.130015171269958011e-04
2.660000000000000142e+01,9.307000000000001383e-02,5.095446987262257626e-04
2.680000000000000071e+01,9.242780000000000440e-02,7.799217524854665587e-04
2.700000000000000000e+01,9.068519999999999359e-02,8.830021744027588635e-04
2.719999999999999929e+01,8.963580000000000159e-02,7.808489866805238535e-04
2.739999999999999858e+01,8.960299999999998821e-02,9.701475660949709012e-04
2.760000000000000142e+01,8.917540000000000189e-02,1.091998608057720335e-03
2.780000000000000071e+01,8.805520000000000014e-02,1.205689777679150700e-03
2.800000000000000000e+01,8.733480000000000409e-02,1.334138613488118066e-03
2.819999999999999929e+01,8.651519999999998656e-02,1.197605753159195190e-03
2.839999999999999858e+01,8.547780000000000655e-02,1.341429364521292160e-03
2.860000000000000142e+01,8.406159999999998633e-02,1.292379727479504338e-03
2.880000000000000071e+01,8.281120000000000148e-02,1.115011452855978582e-03
2.900000000000000000e+01,8.264799999999999924e-02,1.315631217324976857e-03
2.919999999999999929e+01,8.113480000000000691e-02,1.166552673478569524e-03
2.939999999999999858e+01,8.064119999999999622e-02,1.010610676769249259e-03
2.960000000000000142e+01,7.939240000000000186e-02,1.400599964301013373e-03
2.980000000000000071e+01,7.883379999999999554e-02,1.271312801791910562e-03
3.000000000000000000e+01,7.884919999999999429e-02,1.018341465324867044e-03
3.019999999999999929e+01,7.812739999999999962e-02,8.883200774495647253e-04
3.039999999999999858e+01,7.719099999999999573e-02,5.668979625999715378e-04
3.060000000000000142e+01,7.620340000000000447e-02,7.775937628350682593e-04
3.080000000000000071e+01,7.538020000000000831e-02,5.072735356787317663e-04
3.100000000000000000e+01,7.531540000000000457e-02,8.205821470151547547e-04
3.119999999999999929e+01,7.414819999999999744e-02,7.342247884674011878e-04
3.139999999999999858e+01,7.309620000000000006e-02,7.861066975926356325e-04
3.160000000000000142e+01,7.261980000000001212e-02,1.163665604888277630e-03
3.180000000000000071e+01,7.240399999999999614e-02,7.935658762824937063e-04
3.200000000000000000e+01,7.127279999999999727e-02,7.685384440611936659e-04
3.220000000000000284e+01,7.082879999999999732e-02,5.155385921538762359e-04
3.239999999999999858e+01,6.987259999999999305e-02,6.961605849227601051e-04
3.260000000000000142e+01,6.902159999999998852e-02,8.329047124371414873e-04
3.279999999999999716e+01,6.808179999999999787e-02,7.286176912482967552e-04
3.300000000000000000e+01,6.730780000000000096e-02,7.211624227592561146e-04
3.320000000000000284e+01,6.720759999999999235e-02,7.780501654777785808e-04
3.339999999999999858e+01,6.678560000000000052e-02,1.053878531900142700e-03
3.360000000000000142e+01,6.614319999999999922e-02,8.276072377643873407e-04
3.379999999999999716e+01,6.542200000000000792e-02,6.669921288890903049e-04
3.400000000000000000e+01,6.494179999999999398e-02,6.206588757119304396e-04
3.420000000000000284e+01,6.451319999999999277e-02,5.520509396785776811e-04
3.439999999999999858e+01,6.360940000000001038e-02,8.020654337396671473e-04
3.460000000000000142e+01,6.316620000000000568e-02,7.026786890179605085e-04
3.479999999999999716e+01,6.251000000000001000e-02,7.390169145560888464e-04
3.500000000000000000e+01,6.231220000000000508e-02,9.142567144954430718e-04
3.520000000000000284e+01,6.203519999999999868e-02,8.435939426050891553e-04
3.539999999999999858e+01,6.217920000000000391e-02,8.981220629736252339e-04
3.560000000000000142e+01,6.152339999999999198e-02,7.275019312689144950e-04
3.579999999999999716e+01,6.097979999999999373e-02,8.349694245899068204e-04
3.600000000000000000e+01,5.997599999999999459e-02,6.183211948494083277e-04
3.620000000000000284e+01,5.982539999999999386e-02,3.967491146808022409e-04
3.639999999999999858e+01,6.003939999999999971e-02,4.934315150048690585e-04
3.660000000000000142e+01,5.906900000000000345e-02,5.510591619780940342e-04
3.679999999999999716e+01,5.836500000000000021e-02,5.325612640814198981e-04
3.700000000000000000e+01,5.838099999999999540e-02,8.252598984562369878e-04
3.720000000000000284e+01,5.795099999999999557e-02,8.311762147703692259e-04
3.739999999999999858e+01,5.713100000000000123e-02,6.390806678346644008e-04
3.760000000000000142e+01,5.676480000000000414e-02,7.391659759485684489e-04
3.779999999999999716e+01,5.612879999999999953e-02,5.360448115596310814e-04
3.800000000000000000e+01,5.548640000000000516e-02,3.836417078473095704e-04
3.820000000000000284e+01,5.529159999999999631e-02,4.496805088059744487e-04
3.839999999999999858e+01,5.481219999999999842e-02,2.637148839182193970e-04
3.860000000000000142e+01,5.418380000000000418e-02,6.873068746928107445e-04
3.879999999999999716e+01,5.367279999999999968e-02,8.455287339883841907e-04
3.900000000000000000e+01,5.329300000000000009e-02,9.811958010509417519e-04
3.920000000000000284e+01,5.261720000000000980e-02,1.016977895531658667e-03
3.939999999999999858e+01,5.179620000000000057e-02,8.755507638052754341e-04
3.960000000000000142e+01,5.184639999999999388e-02,8.336263311580307568e-04
3.979999999999999716e+01,5.107279999999999459e-02,1.027939657762069053e-03
4.000000000000000000e+01,5.041040000000000104e-02,1.312504803800733149e-03
4.020000000000000284e+01,5.003439999999999971e-02,1.160150921216718126e-03
4.039999999999999858e+01,4.945859999999999840e-02,1.173008124439041877e-03
4.060000000000000142e+01,4.888820000000000665e-02,7.115829115429908201e-04
4.079999999999999716e+01,4.859240000000000087e-02,7.793847958486233756e-04
4.100000000000000000e+01,4.893699999999999439e-02,7.929651316419910039e-04
4.120000000000000284e+01,4.847700000000000620e-02,7.888722330010097946e-04
4.139999999999999858e+01,4.780179999999999152e-02,8.530005509963047060e-04
4.160000000000000142e+01,4.772119999999999834e-02,8.739049948363952292e-04
4.179999999999999716e+01,4.734159999999999757e-02,9.399069953990125742e-04
4.200000000000000000e+01,4.711100000000000010e-02,8.299618063501469634e-04
4.220000000000000284e+01,4.579400000000000137e-02,1.003078511383830376e-03
4.239999999999999858e+01,4.591060000000000280e-02,1.097505334838970925e-03
4.260000000000000142e+01,4.581159999999999399e-02,1.233445077820654549e-03
4.279999999999999716e+01,4.561500000000000277e-02,1.202583053264929700e-03
4.300000000000000000e+01,4.559719999999999746e-02,1.502093552346191706e-03
4.320000000000000284e+01,4.543460000000000554e-02,1.209436009055460523e-03
4.339999999999999858e+01,4.494340000000000140e-02,1.043540732314747390e-03
4.360000000000000142e+01,4.525400000000000256e-02,1.097722232625357539e-03
4.379999999999999716e+01,4.451600000000000001e-02,1.176866050151843118e-03
4.400000000000000000e+01,4.440400000000000597e-02,1.094073626407291149e-03
4.420000000000000284e+01,4.433980000000000560e-02,1.048667411527601798e-03
4.439999999999999858e+01,4.427440000000000542e-02,1.032826055054770348e-03
4.460000000000000142e+01,4.378440000000000110e-02,1.137153665957243900e-03
4.479999999999999716e+01,4.365200000000000330e-02,1.407809894836657347e-03
4.500000000000000000e+01,4.261500000000000010e-02,1.164648316016469835e-03
4.520000000000000284e+01,4.248680000000000512e-02,1.083201430944401907e-03
4.539999999999999858e+01,4.240479999999999250e-02,9.516603595821352323e-04
4.560000000000000142e+01,4.205839999999999579e-02,9.871841064360801100e-04
4.579999999999999716e+01,4.202439999999999648e-02,7.655423306388753520e-04
4.600000000000000000e+01,4.136800000000000199e-02,6.558427402967872098e-04
4.620000000000000284e+01,4.121740000000000126e-02,1.125376585859150669e-03
4.639999999999999858e+01,4.139739999999999392e-02,1.312332031156749528e-03
4.660000000000000142e+01,4.049239999999999784e-02,1.235961916889027640e-03
4.679999999999999716e+01,4.019640000000000019e-02,1.068733905141967984e-03
4.700000000000000000e+01,4.021000000000000268e-02,1.127937719911875853e-03
4.720000000000000284e+01,4.006239999999999801e-02,1.398686476663014728e-03
4.739999999999999858e+01,3.958640000000000075e-02,1.212591670761431484e-03
4.760000000000000142e+01,3.925900000000000223e-02,1.228874240921339761e-03
4.779999999999999716e+01,3.858140000000000180e-02,1.298138074320293088e-03
4.800000000000000000e+01,3.846639999999999782e-02,1.386835700434626423e-03
4.820000000000000284e+01,3.849980000000000069e-02,1.343552953924779256e-03
4.839999999999999858e+01,3.838399999999999451e-02,1.214537936830298575e-03
4.860000000000000142e+01,3.805340000000000111e-02,1.403526686600578034e-03
4.879999999999999716e+01,3.767420000000000491e-02,1.171353208899860061e-03
4.900000000000000000e+01,3.729799999999999782e-02,1.011087582754333211e-03
4.920000000000000284e+01,3.687200000000000200e-02,9.426487680997628618e-04
4.939999999999999858e+01,3.631220000000000281e-02,1.062089468924346186e-03
4.960000000000000142e+01,3.665660000000000446e-02,1.117887409357489446e-03
4.979999999999999716e+01,3.634319999999999912e-02,1.080548629169460857e-03
5.000000000000000000e+01,3.607880000000000115e-02,1.113353286248349545e-03
5.020000000000000284e+01,3.582079999999999986e-02,5.008757730216138607e-04
5.039999999999999858e+01,3.562159999999999632e-02,8.119158577094060707e-04
5.060000000000000142e+01,3.535600000000000548e-02,9.027300260875346103e-04
5.079999999999999716e+01,3.497759999999999758e-02,8.797862013012016421e-04
5.100000000000000000e+01,3.491560000000000497e-02,5.536151732024692171e-04
5.120000000000000284e+01,3.415839999999999849e-02,6.502217006529389682e-04
5.139999999999999858e+01,3.470020000000000049e-02,8.521918445983859940e-04
5.160000000000000142e+01,3.445379999999999970e-02,8.578453473674619266e-04
5.179999999999999716e+01,3.422519999999999729e-02,7.780715519796360148e-04
5.200000000000000000e+01,3.376620000000000316e-02,5.666662509802390451e-04
5.220000000000000284e+01,3.341999999999999138e-02,8.350659255412107990e-04
5.239999999999999858e+01,3.248459999999999542e-02,8.694234066322344221e-04
5.260000000000000142e+01,3.220540000000000208e-02,8.939710621714775166e-04
5.279999999999999716e+01,3.271699999999999608e-02,7.741689092181365354e-04
5.300000000000000000e+01,3.228899999999999826e-02,5.788466981852798208e-04
5.320000000000000284e+01,3.238619999999999693e-02,7.683522239181712551e-04
