timestep,H(t)_mean,H(t)_err
2.000000000000000111e-01,7.570379999999999887e-01,8.622859154595904733e-04
4.000000000000000222e-01,5.599217999999999140e-01,1.392461073064520582e-03
5.999999999999999778e-01,4.270947999999999967e-01,1.603635881364595412e-03
8.000000000000000444e-01,3.445409999999999306e-01,1.095319268524019840e-03
1.000000000000000000e+00,2.891703999999999941e-01,9.997956091121827215e-04
1.199999999999999956e+00,2.476225999999999983e-01,7.380916338775288807e-04
1.399999999999999911e+00,2.148260000000000169e-01,5.270809235781544677e-04
1.600000000000000089e+00,1.887225999999999904e-01,5.936496104605818456e-04
1.800000000000000044e+00,1.673656000000000033e-01,4.271079020575487494e-04
2.000000000000000000e+00,1.491076000000000068e-01,4.758040142747866751e-04
2.200000000000000178e+00,1.336887999999999965e-01,9.072498222650704318e-04
2.399999999999999911e+00,1.211225999999999969e-01,5.897991692093167062e-04
2.600000000000000089e+00,1.096203999999999928e-01,4.174960598616471626e-04
2.799999999999999822e+00,9.969859999999999833e-02,6.771518736590776679e-04
3.000000000000000000e+00,9.145799999999999763e-02,6.627941611088616816e-04
3.200000000000000178e+00,8.403720000000000634e-02,7.339170525338681523e-04
3.399999999999999911e+00,7.715579999999999661e-02,5.493114235112922517e-04
3.600000000000000089e+00,7.101080000000001280e-02,5.966001508548264337e-04
3.799999999999999822e+00,6.599440000000000861e-02,2.287071489918925853e-04
4.000000000000000000e+00,6.118759999999999477e-02,3.790309486044645998e-04
4.200000000000000178e+00,5.714059999999999973e-02,4.119131704619308373e-04
4.400000000000000355e+00,5.341020000000000489e-02,4.331001500807869472e-04
4.599999999999999645e+00,4.999239999999999240e-02,3.239040907429233422e-04
4.799999999999999822e+00,4.658879999999999966e-02,4.689500399829392018e-04
5.000000000000000000e+00,4.399680000000000257e-02,6.146501769299350095e-04
5.200000000000000178e+00,4.169080000000000008e-02,1.761835406614359540e-04
5.400000000000000355e+00,3.982619999999999910e-02,4.816365227015075327e-04
5.599999999999999645e+00,3.757760000000000267e-02,4.102234269273266946e-04
5.799999999999999822e+00,3.616079999999999989e-02,4.263087378883998759e-04
6.000000000000000000e+00,3.450639999999999957e-02,5.550679778189331537e-04
6.200000000000000178e+00,3.267599999999999671e-02,5.206245288113112765e-04
6.400000000000000355e+00,3.080359999999999696e-02,3.796641410510085356e-04
6.599999999999999645e+00,2.970719999999999958e-02,4.762664590331760366e-04
6.799999999999999822e+00,2.828720000000000193e-02,3.655005335153427379e-04
7.000000000000000000e+00,2.734139999999999834e-02,3.671677545754802280e-04
7.200000000000000178e+00,2.653900000000000009e-02,3.719569867605660536e-04
7.400000000000000355e+00,2.535580000000000125e-02,4.719747238994903777e-04
7.599999999999999645e+00,2.385799999999999726e-02,6.051150303867849217e-04
7.799999999999999822e+00,2.277979999999999935e-02,5.028917776221836526e-04
8.000000000000000000e+00,2.210279999999999884e-02,2.960184791529071814e-04
8.199999999999999289e+00,2.152120000000000075e-02,2.932429709302506772e-04
8.400000000000000355e+00,2.109259999999999607e-02,2.420149995351528107e-04
8.599999999999999645e+00,2.021979999999999958e-02,1.715224183598171824e-04
8.800000000000000711e+00,1.937300000000000133e-02,7.793394639051679017e-05
9.000000000000000000e+00,1.900339999999999668e-02,1.305735807887641530e-04
9.199999999999999289e+00,1.839700000000000016e-02,1.788340012413746271e-04
9.400000000000000355e+00,1.787539999999999962e-02,1.768059953734598289e-04
9.599999999999999645e+00,1.725660000000000388e-02,1.910718712945475386e-04
9.800000000000000711e+00,1.650560000000000221e-02,2.809415597593209186e-04
1.000000000000000000e+01,1.589439999999999950e-02,3.420761026438414744e-04
1.019999999999999929e+01,1.529939999999999946e-02,3.014240534529387503e-04
1.040000000000000036e+01,1.469939999999999788e-02,2.020026237453364224e-04
1.059999999999999964e+01,1.431120000000000135e-02,2.467777137425500875e-04
1.080000000000000071e+01,1.382680000000000020e-02,2.190774748804631081e-04
1.100000000000000000e+01,1.363259999999999993e-02,2.368403681807642398e-04
1.119999999999999929e+01,1.325659999999999859e-02,2.741858129079621136e-04
1.140000000000000036e+01,1.293479999999999977e-02,3.289254322791107673e-04
1.159999999999999964e+01,1.250300000000000022e-02,4.723199127709947084e-04
1.180000000000000071e+01,1.194120000000000077e-02,3.084171525709944245e-04
1.200000000000000000e+01,1.151000000000000113e-02,3.989081347879484991e-04
1.219999999999999929e+01,1.138219999999999857e-02,4.293047169552181570e-04
1.240000000000000036e+01,1.131640000000000076e-02,3.461084512114664924e-04
1.259999999999999964e+01,1.080940000000000026e-02,2.277232091816730019e-04
1.280000000000000071e+01,1.046659999999999952e-02,1.580875074128248981e-04
1.300000000000000000e+01,1.028920000000000008e-02,1.111221850037156866e-04
1.319999999999999929e+01,1.013239999999999974e-02,9.266153463007195635e-05
1.340000000000000036e+01,9.924999999999999795e-03,1.550483795465143315e-04
1.359999999999999964e+01,9.482599999999999016e-03,1.795997216033476450e-04
1.380000000000000071e+01,9.405200000000000712e-03,1.515939972426347130e-04
1.400000000000000000e+01,9.440199999999999286e-03,1.224917956436267922e-04
1.419999999999999929e+01,9.099600000000001090e-03,2.328062713931906965e-04
1.440000000000000036e+01,8.760399999999999784e-03,1.999683975032055566e-04
1.459999999999999964e+01,8.747000000000001302e-03,3.608050720264334953e-04
1.480000000000000071e+01,8.486999999999998018e-03,2.907462811456064541e-04
1.500000000000000000e+01,8.287600000000000869e-03,2.449917549633048842e-04
1.519999999999999929e+01,7.936599999999998517e-03,1.985415825463271173e-04
1.540000000000000036e+01,7.833599999999999591e-03,2.137972403937900246e-04
1.559999999999999964e+01,7.773200000000000942e-03,1.945413580707198639e-04
1.580000000000000071e+01,7.894999999999999241e-03,2.085564671737608717e-04
1.600000000000000000e+01,7.756200000000000420e-03,2.692514438215698556e-04
1.619999999999999929e+01,7.472799999999999929e-03,3.841804784212752774e-04
1.639999999999999858e+01,7.126799999999999975e-03,2.472289222562765003e-04
1.660000000000000142e+01,7.058400000000001132e-03,2.067134731941777681e-04
1.680000000000000071e+01,7.028399999999999752e-03,2.391814374068355366e-04
1.700000000000000000e+01,6.810599999999999987e-03,3.244265093977369914e-04
1.719999999999999929e+01,6.572999999999999850e-03,2.843939169532287052e-04
1.739999999999999858e+01,6.493400000000000734e-03,2.851172741171604900e-04
1.760000000000000142e+01,6.482200000000000462e-03,2.317281597044260088e-04
1.780000000000000071e+01,6.452799999999999855e-03,1.773850050032414565e-04
1.800000000000000000e+01,6.471599999999999228e-03,1.230827364011703468e-04
1.819999999999999929e+01,6.198600000000000290e-03,1.730383194555470906e-04
1.839999999999999858e+01,6.068800000000000062e-03,3.150195866926373302e-04
1.860000000000000142e+01,5.942199999999999913e-03,2.853843723822311338e-04
1.880000000000000071e+01,5.785600000000000118e-03,2.122716655609033611e-04
1.900000000000000000e+01,5.708200000000000079e-03,1.943472150559404912e-04
1.919999999999999929e+01,5.689200000000000160e-03,2.019575202858264436e-04
1.939999999999999858e+01,5.754600000000000340e-03,2.633474131257036071e-04
1.960000000000000142e+01,5.530999999999999459e-03,2.699379558342991214e-04
1.980000000000000071e+01,5.360600000000000087e-03,2.595508813315801919e-04
2.000000000000000000e+01,5.318999999999999076e-03,2.070837994629228060e-04
2.019999999999999929e+01,5.155399999999999219e-03,2.310977282450003411e-04
2.039999999999999858e+01,5.137199999999999753e-03,1.817361824183615266e-04
2.060000000000000142e+01,5.063999999999999925e-03,2.100540406657296728e-04
2.080000000000000071e+01,5.173600000000000421e-03,2.027125057809705112e-04
2.100000000000000000e+01,5.107599999999999467e-03,1.696692665157717233e-04
2.119999999999999929e+01,5.180399999999999935e-03,9.433800930695962570e-05
2.139999999999999858e+01,5.150599999999999970e-03,8.285143330081858894e-05
2.160000000000000142e+01,5.131800000000000597e-03,1.444328217546136310e-04
2.180000000000000071e+01,4.992800000000000363e-03,9.673747981005093575e-05
2.200000000000000000e+01,5.119000000000000286e-03,2.069502355640119703e-04
2.219999999999999929e+01,4.967199999999999740e-03,2.638665192857934808e-04
2.239999999999999858e+01,4.640199999999999707e-03,2.338337871223916751e-04
2.260000000000000142e+01,4.713400000000000402e-03,1.571253003179308807e-04
2.280000000000000071e+01,4.694800000000000709e-03,1.432638823988796053e-04
2.300000000000000000e+01,4.591200000000000142e-03,1.876913423682616733e-04
2.319999999999999929e+01,4.367199999999999901e-03,2.015825885338314060e-04
2.339999999999999858e+01,4.142400000000000075e-03,2.688156617461118399e-04
2.360000000000000142e+01,3.919000000000000608e-03,2.181804299198257069e-04
2.380000000000000071e+01,3.997200000000000232e-03,2.425537878492108718e-04
2.400000000000000000e+01,4.191200000000000828e-03,1.894416532867046173e-04
2.419999999999999929e+01,4.167399999999999924e-03,1.474189947055669554e-04
2.439999999999999858e+01,3.949400000000000480e-03,1.657023234598718362e-04
2.460000000000000142e+01,3.888799999999999982e-03,1.720678354603207753e-04
2.480000000000000071e+01,3.888600000000000303e-03,2.227751332622203309e-04
2.500000000000000000e+01,3.768200000000000195e-03,1.170031623504253849e-04
2.519999999999999929e+01,3.634599999999999550e-03,1.539108833058922649e-04
2.539999999999999858e+01,3.701399999999999656e-03,1.188186012373483461e-04
2.560000000000000142e+01,3.513199999999999743e-03,1.454088718063654083e-04
2.580000000000000071e+01,3.665600000000000195e-03,5.785550967712578156e-05
2.600000000000000000e+01,3.592799999999999293e-03,9.415858962410170207e-05
2.619999999999999929e+01,3.458399999999999495e-03,2.080828200500945389e-04
2.639999999999999858e+01,3.260199999999999990e-03,1.814892283304990223e-04
2.660000000000000142e+01,3.393000000000000183e-03,1.738657528094592910e-04
2.680000000000000071e+01,3.368800000000000353e-03,1.482843214908440563e-04
2.700000000000000000e+01,3.259800000000000197e-03,1.123714376521009055e-04
2.719999999999999929e+01,3.053400000000000385e-03,9.673706631896586828e-05
2.739999999999999858e+01,3.077799999999999894e-03,1.234339499489503890e-04
2.760000000000000142e+01,3.084200000000000049e-03,1.157645887134749267e-04
2.780000000000000071e+01,3.210599999999999652e-03,1.370385347265505528e-04
2.800000000000000000e+01,3.119800000000000264e-03,1.684747458819867627e-04
2.819999999999999929e+01,3.185599999999999370e-03,2.435402636115843462e-04
2.839999999999999858e+01,3.107400000000000179e-03,2.393423489481124840e-04
2.860000000000000142e+01,3.027999999999999876e-03,2.548319053807822409e-04
2.880000000000000071e+01,2.973600000000000288e-03,2.048415485198254666e-04
2.900000000000000000e+01,2.943200000000000417e-03,1.925023116744315919e-04
2.919999999999999929e+01,2.949000000000000232e-03,2.744913477689232763e-04
2.939999999999999858e+01,2.918399999999999814e-03,2.411208410735164384e-04
2.960000000000000142e+01,2.973599999999999854e-03,2.196000000000000252e-04
2.980000000000000071e+01,2.876800000000000104e-03,2.033377485859426317e-04
3.000000000000000000e+01,2.834199999999999827e-03,2.305630933172089488e-04
3.019999999999999929e+01,2.647000000000000047e-03,1.819895601401355233e-04
3.039999999999999858e+01,2.647799999999999633e-03,1.039602808768810399e-04
3.060000000000000142e+01,2.635399999999999982e-03,1.375727443936479628e-04
3.080000000000000071e+01,2.629400000000000053e-03,1.444148884291366990e-04
3.100000000000000000e+01,2.768799999999999647e-03,2.245975066647000679e-04
3.119999999999999929e+01,2.683600000000000395e-03,1.951759718817866788e-04
3.139999999999999858e+01,2.629200000000000374e-03,1.596130947009048240e-04
3.160000000000000142e+01,2.581799999999999547e-03,1.426861591045185910e-04
3.180000000000000071e+01,2.557000000000000245e-03,7.941221568499397178e-05
3.200000000000000000e+01,2.629399999999999619e-03,8.813830041474591105e-05
3.220000000000000284e+01,2.495199999999999935e-03,1.442072813695618831e-04
3.239999999999999858e+01,2.452800000000000639e-03,1.661250733634149111e-04
3.260000000000000142e+01,2.567600000000000177e-03,1.693560155412260576e-04
3.279999999999999716e+01,2.537999999999999892e-03,1.550041934916600945e-04
3.300000000000000000e+01,2.429600000000000076e-03,1.175689584881995861e-04
3.320000000000000284e+01,2.356799999999999607e-03,1.554456175001405253e-04
3.339999999999999858e+01,2.326400000000000169e-03,2.025348365096730629e-04
3.360000000000000142e+01,2.362999999999999649e-03,1.326076920845845736e-04
3.379999999999999716e+01,2.405199999999999699e-03,1.427036789995268437e-04
3.400000000000000000e+01,2.428800000000000056e-03,1.184632432444764890e-04
3.420000000000000284e+01,2.495200000000000369e-03,1.270379470866874600e-04
3.439999999999999858e+01,2.471200000000000219e-03,1.292247654283032812e-04
3.460000000000000142e+01,2.326200000000000056e-03,1.198588336335707871e-04
3.479999999999999716e+01,2.289600000000000142e-03,1.206973901954801746e-04
3.500000000000000000e+01,2.265799999999999672e-03,1.527080220551624810e-04
3.520000000000000284e+01,2.295999999999999864e-03,1.856590961951500637e-04
3.539999999999999858e+01,2.339200000000000047e-03,9.669663903156095429e-05
3.560000000000000142e+01,2.351599999999999697e-03,1.048544705770812583e-04
3.579999999999999716e+01,2.212199999999999670e-03,5.518278717136352088e-05
3.600000000000000000e+01,2.175000000000000284e-03,6.562088082310386580e-05
3.620000000000000284e+01,2.187199999999999821e-03,1.276171618552927672e-04
3.639999999999999858e+01,2.157399999999999856e-03,1.074688792162642687e-04
3.660000000000000142e+01,2.175400000000000077e-03,7.248558477380175047e-05
3.679999999999999716e+01,2.212399999999999783e-03,6.688617196401661752e-05
3.700000000000000000e+01,2.193400000000000297e-03,4.990851630733974739e-05
3.720000000000000284e+01,2.181599999999999685e-03,5.186964430184573635e-05
3.739999999999999858e+01,2.061599999999999804e-03,1.118528497625340194e-04
3.760000000000000142e+01,2.187999999999999841e-03,1.307226070731455235e-04
3.779999999999999716e+01,2.078599999999999892e-03,9.222450867312872763e-05
3.800000000000000000e+01,2.150800000000000021e-03,5.078917207437036175e-05
3.820000000000000284e+01,1.987599999999999957e-03,7.491835556123747930e-05
3.839999999999999858e+01,1.963799999999999921e-03,7.475118728154085093e-05
3.860000000000000142e+01,2.030800000000000140e-03,1.057035477171887838e-04
3.879999999999999716e+01,2.103400000000000495e-03,1.087660792710668921e-04
3.900000000000000000e+01,2.121800000000000075e-03,9.148956224619287226e-05
3.920000000000000284e+01,2.085800000000000067e-03,1.516978575985831123e-04
3.939999999999999858e+01,2.122399999999999981e-03,1.534570298161671046e-04
3.960000000000000142e+01,2.055799999999999988e-03,1.369541529125714162e-04
3.979999999999999716e+01,1.952399999999999969e-03,1.281513168094655024e-04
4.000000000000000000e+01,2.019400000000000188e-03,1.461234409668756278e-04
4.020000000000000284e+01,1.927799999999999913e-03,1.001450947375855989e-04
4.039999999999999858e+01,1.879399999999999821e-03,1.220658019266657830e-04
4.060000000000000142e+01,1.922199999999999994e-03,1.183162710703814701e-04
4.079999999999999716e+01,1.854800000000000199e-03,8.335250446147371699e-05
4.100000000000000000e+01,1.842399999999999897e-03,3.277895666429913332e-05
4.120000000000000284e+01,1.824399999999999893e-03,3.733711290391906150e-05
4.139999999999999858e+01,1.872599999999999872e-03,5.128216064090903702e-05
4.160000000000000142e+01,1.738999999999999877e-03,1.092542905335987062e-04
4.179999999999999716e+01,1.660599999999999923e-03,9.583141447354307668e-05
4.200000000000000000e+01,1.684800000000000186e-03,9.810524960469750328e-05
4.220000000000000284e+01,1.739800000000000114e-03,1.054184044652545417e-04
4.239999999999999858e+01,1.806800000000000116e-03,1.479088908754304810e-04
4.260000000000000142e+01,1.873199999999999778e-03,1.172460660320847974e-04
4.279999999999999716e+01,1.690600000000000002e-03,1.172836732030506731e-04
4.300000000000000000e+01,1.611800000000000038e-03,1.103537040610780528e-04
4.320000000000000284e+01,1.551600000000000201e-03,9.838272206032926028e-05
4.339999999999999858e+01,1.575800000000000031e-03,1.112975291729335691e-04
4.360000000000000142e+01,1.593800000000000034e-03,9.497915560795431038e-05
4.379999999999999716e+01,1.575399999999999804e-03,7.312838026375258313e-05
4.400000000000000000e+01,1.508400000000000235e-03,8.298108218142251228e-05
4.420000000000000284e+01,1.363199999999999742e-03,6.911541072727557316e-05
4.439999999999999858e+01,1.297200000000000089e-03,1.056855713898543651e-04
4.460000000000000142e+01,1.387999999999999911e-03,5.227236363509880196e-05
4.479999999999999716e+01,1.381999999999999982e-03,3.753265245089934391e-05
4.500000000000000000e+01,1.430199999999999961e-03,3.415025622158639765e-05
4.520000000000000284e+01,1.363800000000000082e-03,9.012069684595208749e-05
4.539999999999999858e+01,1.406600000000000038e-03,5.627752659810133015e-05
4.560000000000000142e+01,1.418399999999999783e-03,7.789390220036483919e-05
4.579999999999999716e+01,1.406399999999999924e-03,6.263433563150487180e-05
4.600000000000000000e+01,1.381800000000000085e-03,8.007334138151099513e-05
4.620000000000000284e+01,1.369799999999999794e-03,1.267270294767458138e-04
4.639999999999999858e+01,1.388200000000000024e-03,1.234809297017154376e-04
4.660000000000000142e+01,1.448999999999999984e-03,1.084343119127889583e-04
4.679999999999999716e+01,1.339600000000000252e-03,6.735027839586113019e-05
4.700000000000000000e+01,1.393800000000000160e-03,9.672714200264576415e-05
4.720000000000000284e+01,1.376000000000000053e-03,1.017216791052920040e-04
4.739999999999999858e+01,1.358399999999999842e-03,1.157741767407568156e-04
4.760000000000000142e+01,1.358000000000000049e-03,1.349092287428847465e-04
4.779999999999999716e+01,1.418999999999999906e-03,1.318787321746762618e-04
4.800000000000000000e+01,1.352200000000000017e-03,1.242527263282379945e-04
4.820000000000000284e+01,1.218800000000000135e-03,1.094876248714894625e-04
4.839999999999999858e+01,1.194399999999999976e-03,1.135683054377408625e-04
4.860000000000000142e+01,1.303200000000000018e-03,9.829567640542489593e-05
4.879999999999999716e+01,1.364200000000000091e-03,9.726479321933501944e-05
4.900000000000000000e+01,1.315599999999999886e-03,8.453910337825921181e-05
4.920000000000000284e+01,1.266799999999999784e-03,8.654155071409338422e-05
4.939999999999999858e+01,1.211999999999999970e-03,5.877669606230006432e-05
4.960000000000000142e+01,1.169600000000000023e-03,5.507776320803159191e-05
4.979999999999999716e+01,1.163399999999999981e-03,7.664502593123705219e-05
5.000000000000000000e+01,1.230599999999999880e-03,8.449650880361863443e-05
5.020000000000000284e+01,1.272600000000000033e-03,4.936152347729959078e-05
5.039999999999999858e+01,1.265999999999999981e-03,5.064089256717342722e-05
5.060000000000000142e+01,1.296999999999999976e-03,5.055096438249224127e-05
5.079999999999999716e+01,1.302599999999999895e-03,4.042969205917850063e-05
5.100000000000000000e+01,1.260999999999999968e-03,7.521436033098998256e-05
5.120000000000000284e+01,1.230799999999999993e-03,7.606076518153102536e-05
5.139999999999999858e+01,1.236800000000000139e-03,8.091501714762222358e-05
5.160000000000000142e+01,1.194200000000000079e-03,8.250902980886396041e-05
5.179999999999999716e+01,1.170000000000000033e-03,8.229094725423934846e-05
5.200000000000000000e+01,1.188199999999999933e-03,6.210909756227342979e-05
5.220000000000000284e+01,1.127200000000000077e-03,4.462331229301562835e-05
5.239999999999999858e+01,1.266800000000000001e-03,4.968440399159478955e-05
5.260000000000000142e+01,1.278800000000000076e-03,6.310578420398561621e-05
5.279999999999999716e+01,1.223599999999999818e-03,8.335742318474104228e-05
5.300000000000000000e+01,1.205200000000000021e-03,6.895752315737565326e-05
5.320000000000000284e+01,1.193400000000000060e-03,4.970472814531833641e-05
