timestep,H(t)_mean,H(t)_err
4.000000000000000222e-01,5.202223999999999737e-01,6.064709061447246972e-04
8.000000000000000444e-01,2.943102000000000218e-01,5.680938654835147004e-04
1.199999999999999956e+00,2.050188000000000010e-01,6.836833623834957492e-04
1.600000000000000089e+00,1.569773999999999892e-01,2.230381133349060841e-05
2.000000000000000000e+00,1.255254000000000092e-01,3.942985670783011039e-04
2.399999999999999911e+00,1.040989999999999832e-01,3.430553891137700013e-04
2.799999999999999822e+00,8.773499999999999355e-02,2.889226540096859761e-04
3.200000000000000178e+00,7.580960000000000476e-02,4.456019075363113510e-04
3.600000000000000089e+00,6.626319999999999433e-02,5.241642299890372867e-04
4.000000000000000000e+00,5.811720000000000080e-02,2.553467054809993478e-04
4.400000000000000355e+00,5.218600000000001016e-02,3.416526013365045315e-04
4.799999999999999822e+00,4.732280000000000514e-02,2.242700158291338944e-04
5.200000000000000178e+00,4.267200000000000160e-02,2.532439535309779729e-04
5.599999999999999645e+00,3.892479999999999551e-02,2.599252584878976877e-04
6.000000000000000000e+00,3.524319999999999536e-02,1.780489820246101084e-04
6.400000000000000355e+00,3.230480000000000157e-02,2.336053081588684692e-04
6.799999999999999822e+00,2.981239999999999932e-02,3.999221924324783558e-04
7.200000000000000178e+00,2.785400000000000029e-02,2.932550084823791568e-04
7.599999999999999645e+00,2.618320000000000022e-02,3.437268392197502607e-04
8.000000000000000000e+00,2.451259999999999897e-02,1.654111846278842894e-04
8.400000000000000355e+00,2.296720000000000012e-02,1.867817978283751014e-04
8.800000000000000711e+00,2.152199999999999946e-02,6.096228342180118201e-05
9.199999999999999289e+00,2.033339999999999800e-02,2.072873850479084977e-04
9.599999999999999645e+00,1.959140000000000187e-02,3.063851497706764396e-04
1.000000000000000000e+01,1.841759999999999925e-02,2.596265779923159528e-04
1.040000000000000036e+01,1.730300000000000241e-02,1.816254387468895241e-04
1.080000000000000071e+01,1.619319999999999787e-02,1.424055476447458389e-04
1.119999999999999929e+01,1.544119999999999868e-02,1.577093529249296413e-04
1.159999999999999964e+01,1.481639999999999867e-02,2.014977915511729947e-04
1.200000000000000000e+01,1.455339999999999932e-02,1.749350165061300721e-04
1.240000000000000036e+01,1.391320000000000057e-02,7.833224112713737608e-05
1.280000000000000071e+01,1.299259999999999825e-02,1.930545518758882892e-04
1.319999999999999929e+01,1.226460000000000050e-02,2.324305487667230579e-04
1.359999999999999964e+01,1.159619999999999748e-02,1.369957663579424634e-04
1.400000000000000000e+01,1.148340000000000125e-02,1.510134431102078134e-04
1.440000000000000036e+01,1.115780000000000070e-02,1.491748638343605882e-04
1.480000000000000071e+01,1.051739999999999967e-02,1.837728489195289807e-04
1.519999999999999929e+01,1.006239999999999912e-02,5.716607385504100092e-05
1.559999999999999964e+01,9.811200000000000823e-03,1.826275992285942196e-04
1.600000000000000000e+01,9.490200000000000718e-03,6.624303736997580266e-05
1.639999999999999858e+01,9.115999999999999104e-03,1.866721725378476474e-04
1.680000000000000071e+01,9.001400000000001414e-03,9.444818685395718052e-05
1.719999999999999929e+01,8.763399999999999315e-03,1.833806423808140925e-04
1.760000000000000142e+01,8.466599999999999474e-03,1.517035266564359310e-04
1.800000000000000000e+01,7.856599999999998307e-03,1.390016546664102543e-04
1.839999999999999858e+01,7.832399999999999779e-03,1.634718936086569272e-04
1.880000000000000071e+01,7.706799999999999762e-03,1.281711355961237693e-04
1.919999999999999929e+01,7.508199999999999597e-03,1.254660910365823468e-04
1.960000000000000142e+01,7.218399999999999817e-03,1.332796308518297143e-04
2.000000000000000000e+01,7.057800000000000358e-03,1.767227772529619226e-04
2.039999999999999858e+01,6.643000000000000467e-03,1.517524299640699969e-04
2.080000000000000071e+01,6.683800000000001025e-03,1.134506059922114007e-04
2.119999999999999929e+01,6.329200000000000104e-03,2.234972930484840979e-04
2.160000000000000142e+01,6.171199999999999949e-03,1.006371700714999253e-04
2.200000000000000000e+01,6.048999999999999690e-03,1.065283999692101166e-04
2.239999999999999858e+01,5.910000000000000323e-03,1.078197570021375076e-04
2.280000000000000071e+01,5.800200000000000147e-03,2.914343836955421037e-05
2.319999999999999929e+01,5.597000000000000412e-03,1.007402600751061868e-04
2.360000000000000142e+01,5.627799999999999643e-03,1.950677830909041820e-04
2.400000000000000000e+01,5.380799999999999819e-03,1.044525729697454836e-04
2.439999999999999858e+01,5.342999999999999659e-03,8.460673732038120540e-05
2.480000000000000071e+01,5.201599999999999800e-03,8.890084364054143793e-05
2.519999999999999929e+01,5.146400000000000627e-03,9.524211253431953033e-05
2.560000000000000142e+01,5.071799999999999572e-03,7.286933511429892355e-05
2.600000000000000000e+01,4.894400000000000139e-03,8.918161245458614992e-05
2.639999999999999858e+01,4.820200000000000179e-03,7.063738387001600974e-05
2.680000000000000071e+01,4.779399999999999621e-03,1.001397024161745122e-04
2.719999999999999929e+01,4.647999999999999354e-03,1.164594349977707456e-04
2.760000000000000142e+01,4.437200000000000519e-03,5.036903810874302049e-05
2.800000000000000000e+01,4.436999999999999104e-03,8.355477245495916173e-05
2.839999999999999858e+01,4.226399999999999949e-03,7.619619413067819425e-05
2.880000000000000071e+01,4.086799999999999808e-03,9.042532831015871124e-05
2.919999999999999929e+01,3.931399999999999825e-03,4.498066251179504415e-05
2.960000000000000142e+01,3.962999999999999509e-03,7.323592014851720790e-05
3.000000000000000000e+01,3.831000000000000204e-03,6.662131790951000777e-05
3.039999999999999858e+01,3.792400000000000024e-03,1.336123497286084802e-04
3.080000000000000071e+01,3.739600000000000042e-03,2.891643131508455169e-05
3.119999999999999929e+01,3.710799999999999342e-03,4.821555765518013582e-05
3.160000000000000142e+01,3.646200000000000049e-03,1.190799731273063053e-04
3.200000000000000000e+01,3.511800000000000251e-03,1.073407657882129786e-04
3.239999999999999858e+01,3.423799999999999847e-03,8.040174127467635760e-05
3.279999999999999716e+01,3.301599999999999587e-03,4.525107733524138485e-05
3.320000000000000284e+01,3.351999999999999945e-03,1.317524193326254892e-04
3.360000000000000142e+01,3.289600000000000163e-03,6.323654006980462166e-05
3.400000000000000000e+01,3.220200000000000319e-03,9.608610721639208364e-05
3.439999999999999858e+01,3.174999999999999871e-03,1.274907839806470170e-04
3.479999999999999716e+01,3.107200000000000066e-03,1.370647292340374684e-04
3.520000000000000284e+01,2.879600000000000389e-03,1.184962446662339672e-04
3.560000000000000142e+01,2.901400000000000159e-03,1.098169385841728869e-04
3.600000000000000000e+01,2.939799999999999792e-03,7.733718381218699668e-05
3.639999999999999858e+01,2.953599999999999802e-03,1.678098924378416360e-04
3.679999999999999716e+01,2.949599999999999705e-03,9.686568019685809570e-05
3.720000000000000284e+01,2.925200000000000196e-03,6.457120101097699010e-05
3.760000000000000142e+01,2.927399999999999707e-03,7.507769309188985633e-05
3.800000000000000000e+01,2.826799999999999972e-03,8.401809328948141287e-05
3.839999999999999858e+01,2.778999999999999786e-03,6.404139286430298470e-05
3.879999999999999716e+01,2.587200000000000437e-03,9.587721314264408174e-05
3.920000000000000284e+01,2.613999999999999570e-03,7.683944299641950961e-05
3.960000000000000142e+01,2.546999999999999785e-03,8.878794963281901097e-05
4.000000000000000000e+01,2.475199999999999449e-03,9.855830761534006151e-05
4.039999999999999858e+01,2.358799999999999873e-03,7.166756588583155126e-05
4.079999999999999716e+01,2.418000000000000010e-03,7.486988713762032690e-05
4.120000000000000284e+01,2.484000000000000097e-03,5.191146308860888035e-05
4.160000000000000142e+01,2.366000000000000048e-03,3.835752859609176238e-05
4.200000000000000000e+01,2.282800000000000194e-03,6.412129131575558093e-05
4.239999999999999858e+01,2.307000000000000023e-03,7.611373069295707626e-05
4.279999999999999716e+01,2.179200000000000061e-03,1.095885030466243570e-04
4.320000000000000284e+01,2.210800000000000178e-03,8.968689982377582885e-05
4.360000000000000142e+01,2.203999999999999796e-03,5.216128832764777218e-05
4.400000000000000000e+01,2.194199999999999449e-03,3.035687730976295180e-05
4.439999999999999858e+01,2.169799999999999941e-03,6.592526071241586552e-05
4.479999999999999716e+01,2.142999999999999940e-03,6.869061071209072908e-05
4.520000000000000284e+01,2.194199999999999883e-03,8.173762903338951111e-05
4.560000000000000142e+01,2.024600000000000097e-03,6.101114652258226418e-05
4.600000000000000000e+01,2.073799999999999776e-03,7.152300329264699760e-05
4.639999999999999858e+01,2.034600000000000124e-03,8.779384944288519009e-05
4.679999999999999716e+01,2.002199999999999987e-03,1.043908041927065221e-04
4.720000000000000284e+01,1.955799999999999726e-03,7.402053769056260587e-05
4.760000000000000142e+01,2.022000000000000360e-03,7.141078349941276454e-05
4.800000000000000000e+01,1.923799999999999816e-03,1.666553329479737120e-05
4.839999999999999858e+01,1.951000000000000043e-03,5.096567472328800781e-05
4.879999999999999716e+01,1.968200000000000244e-03,2.852788109902306747e-05
4.920000000000000284e+01,1.892400000000000028e-03,5.480748124115903639e-05
4.960000000000000142e+01,1.808799999999999948e-03,6.896332358580175941e-05
5.000000000000000000e+01,1.841199999999999868e-03,9.481002056744848279e-05
5.039999999999999858e+01,1.803600000000000038e-03,4.296580035330424687e-05
5.079999999999999716e+01,1.805800000000000200e-03,2.741422988157793430e-05
5.120000000000000284e+01,1.832799999999999664e-03,5.924559055322175475e-05
5.160000000000000142e+01,1.660799999999999820e-03,6.531569489793396144e-05
5.200000000000000000e+01,1.759399999999999940e-03,3.162372527075203027e-05
5.239999999999999858e+01,1.675799999999999859e-03,6.630791807921584101e-05
5.279999999999999716e+01,1.673800000000000027e-03,6.713374710233295658e-05
5.320000000000000284e+01,1.732200000000000146e-03,7.326827417102165093e-05
5.360000000000000142e+01,1.668400000000000005e-03,7.120294937711496824e-05
5.400000000000000000e+01,1.621600000000000168e-03,5.340468144273496188e-05
5.439999999999999858e+01,1.709799999999999818e-03,6.988161417712100319e-05
5.479999999999999716e+01,1.530600000000000233e-03,5.162712465361595334e-05
5.520000000000000284e+01,1.560199999999999868e-03,5.545394485516785994e-05
5.560000000000000142e+01,1.545600000000000055e-03,7.017378427874614759e-05
5.600000000000000000e+01,1.614200000000000097e-03,2.767200751662228216e-05
5.639999999999999858e+01,1.594399999999999941e-03,6.012869531263753534e-05
5.679999999999999716e+01,1.587399999999999879e-03,4.571498660176988202e-05
5.720000000000000284e+01,1.653599999999999862e-03,5.494233340512579700e-05
5.760000000000000142e+01,1.548000000000000114e-03,6.112119108787067846e-05
5.800000000000000000e+01,1.596799999999999999e-03,6.450844905901859398e-05
5.839999999999999858e+01,1.579799999999999911e-03,3.345653897222485517e-05
5.879999999999999716e+01,1.503800000000000015e-03,2.931450153081236105e-05
5.920000000000000284e+01,1.516200000000000100e-03,5.773248652188817467e-05
5.960000000000000142e+01,1.501200000000000060e-03,2.571847584908563617e-05
6.000000000000000000e+01,1.535600000000000246e-03,6.941872946114757855e-05
6.039999999999999858e+01,1.503599999999999902e-03,4.866682648375584826e-05
6.079999999999999716e+01,1.451800000000000052e-03,4.365134591281238387e-05
6.120000000000000284e+01,1.395999999999999889e-03,4.859629615515980355e-05
6.160000000000000142e+01,1.417600000000000197e-03,5.219157020056017134e-05
6.200000000000000000e+01,1.321599999999999815e-03,9.595967903239359398e-05
6.239999999999999858e+01,1.228599999999999831e-03,3.359553541767120382e-05
6.279999999999999716e+01,1.277599999999999830e-03,2.441638793925097597e-05
6.320000000000000284e+01,1.257599999999999777e-03,7.055678564107070695e-05
6.360000000000000142e+01,1.265000000000000065e-03,6.037963232746617774e-05
6.400000000000000000e+01,1.331800000000000171e-03,4.748515557519000232e-05
6.440000000000000568e+01,1.208799999999999892e-03,1.240725594158512013e-05
6.479999999999999716e+01,1.204200000000000105e-03,6.663437551294375087e-05
6.520000000000000284e+01,1.187000000000000121e-03,4.070135132891780351e-05
6.559999999999999432e+01,1.270400000000000088e-03,4.184925327888182084e-05
6.600000000000000000e+01,1.230799999999999993e-03,3.364431601325844698e-05
6.640000000000000568e+01,1.225999999999999876e-03,3.126819470324437140e-05
6.679999999999999716e+01,1.201600000000000151e-03,3.672002178648591908e-05
6.720000000000000284e+01,1.194000000000000183e-03,2.912559012277693486e-05
6.759999999999999432e+01,1.201600000000000151e-03,3.524712754253885716e-05
6.800000000000000000e+01,1.169799999999999920e-03,3.794258820902969169e-05
6.840000000000000568e+01,1.179600000000000050e-03,3.185372819624102646e-05
6.879999999999999716e+01,1.157199999999999939e-03,2.682237871628837610e-05
6.920000000000000284e+01,1.157199999999999939e-03,2.237722056020362827e-05
6.959999999999999432e+01,1.194200000000000079e-03,2.872525021649071912e-05
7.000000000000000000e+01,1.161799999999999942e-03,6.950784128427525937e-05
7.040000000000000568e+01,1.142400000000000013e-03,4.701127524328604988e-05
7.079999999999999716e+01,1.039400000000000003e-03,3.092668750448390004e-05
7.120000000000000284e+01,1.105799999999999882e-03,4.165141054034063978e-05
7.159999999999999432e+01,1.041600000000000165e-03,4.058275495823316184e-05
7.200000000000000000e+01,1.086200000000000056e-03,3.490186241449013961e-05
7.240000000000000568e+01,1.080999999999999930e-03,7.633675392627066578e-05
7.279999999999999716e+01,1.066200000000000220e-03,4.547790672403468666e-05
7.320000000000000284e+01,1.061399999999999887e-03,3.416372345046715360e-05
7.359999999999999432e+01,1.034600000000000103e-03,6.898521580744671931e-05
7.400000000000000000e+01,1.019600000000000064e-03,5.287778361467128857e-05
7.440000000000000568e+01,1.017200000000000005e-03,4.590795138099714850e-05
7.479999999999999716e+01,1.044199999999999903e-03,5.488661038905571539e-05
7.520000000000000284e+01,1.096000000000000186e-03,6.476727568764954670e-05
7.559999999999999432e+01,9.928000000000000626e-04,3.796630084693529726e-05
7.600000000000000000e+01,1.056599999999999987e-03,2.930972534842315392e-05
7.640000000000000568e+01,9.729999999999999066e-04,3.736442157989335348e-05
7.679999999999999716e+01,1.029599999999999873e-03,4.859279782025315204e-05
7.720000000000000284e+01,1.073799999999999972e-03,3.529787529016440865e-05
7.759999999999999432e+01,1.014999999999999843e-03,2.423014651214475248e-05
7.800000000000000000e+01,9.951999999999999041e-04,2.981006541421872376e-05
7.840000000000000568e+01,9.508000000000001260e-04,5.269478152530857377e-05
7.879999999999999716e+01,9.878000000000000495e-04,5.254464768175726321e-05
7.920000000000000284e+01,9.455999999999998911e-04,4.016789762982372533e-05
7.959999999999999432e+01,9.974000000000000660e-04,4.019527335396539622e-05
8.000000000000000000e+01,9.483999999999999592e-04,4.437296474205885819e-05
8.040000000000000568e+01,1.000999999999999937e-03,6.902535765934139037e-05
8.079999999999999716e+01,1.104600000000000070e-03,6.072610641231660856e-05
8.120000000000000284e+01,9.175999999999999695e-04,6.585332186002467011e-05
8.159999999999999432e+01,9.858000000000000009e-04,2.246641938538491133e-05
8.200000000000000000e+01,1.056599999999999987e-03,2.064848662735360623e-05
8.240000000000000568e+01,9.961999999999998200e-04,2.453242751950975495e-05
8.279999999999999716e+01,1.074400000000000095e-03,3.549450661722176187e-05
8.320000000000000284e+01,1.046399999999999848e-03,5.494597346484997883e-05
8.359999999999999432e+01,1.063799999999999728e-03,3.376595918969280098e-05
8.400000000000000000e+01,9.959999999999999236e-04,4.223150482755733695e-05
8.440000000000000568e+01,9.129999999999999661e-04,2.536730178793166003e-05
8.479999999999999716e+01,9.205999999999999340e-04,4.065292117425265718e-05
8.520000000000000284e+01,9.633999999999998901e-04,3.108633140143750171e-05
8.559999999999999432e+01,8.573999999999998073e-04,4.498622011238551837e-05
8.600000000000000000e+01,9.233999999999998936e-04,3.533921334721529608e-05
8.640000000000000568e+01,9.003999999999999851e-04,2.704366839021658871e-05
8.679999999999999716e+01,8.498000000000000562e-04,3.000899865040485478e-05
8.720000000000000284e+01,8.873999999999999944e-04,4.271603914222382731e-05
8.759999999999999432e+01,8.597999999999999740e-04,6.038327583031577624e-05
8.800000000000000000e+01,8.420000000000000834e-04,2.578953276040493468e-05
8.840000000000000568e+01,8.396000000000000251e-04,4.662681631850924618e-05
8.879999999999999716e+01,8.800000000000000313e-04,7.247758274114832265e-05
8.920000000000000284e+01,8.524000000000000110e-04,4.111763611882374625e-05
8.959999999999999432e+01,9.250000000000001494e-04,5.021653114264264635e-05
9.000000000000000000e+01,8.243999999999999809e-04,1.706634114272886839e-05
9.040000000000000568e+01,7.868000000000000427e-04,1.229390092688239860e-05
9.079999999999999716e+01,8.070000000000001001e-04,4.067308692489420490e-05
9.120000000000000284e+01,8.751999999999999147e-04,3.270535124410071226e-05
9.159999999999999432e+01,8.524000000000000110e-04,4.117960660326906670e-05
9.200000000000000000e+01,8.473999999999998894e-04,3.304330491945380363e-05
9.240000000000000568e+01,8.396000000000000251e-04,5.385870403193897390e-05
9.279999999999999716e+01,8.243999999999999809e-04,2.677797602508449223e-05
9.320000000000000284e+01,7.846000000000000977e-04,3.873835308838000021e-05
9.359999999999999432e+01,8.398000000000001384e-04,2.797749095254970194e-05
9.400000000000000000e+01,8.222000000000000359e-04,3.239506135200240775e-05
9.440000000000000568e+01,8.899999999999999491e-04,5.867111725542645246e-05
9.479999999999999716e+01,8.647999999999999871e-04,4.864915209949707451e-05
9.520000000000000284e+01,8.448000000000000431e-04,2.902309425268090258e-05
9.559999999999999432e+01,7.488000000000000949e-04,4.139251140001050020e-05
9.600000000000000000e+01,7.463999999999999281e-04,5.085725120373690025e-05
9.640000000000000568e+01,7.592000000000000224e-04,4.542840521083697732e-05
9.679999999999999716e+01,7.565999999999999592e-04,6.345754486268751935e-05
9.720000000000000284e+01,7.991999999999999105e-04,2.165040415327159390e-05
9.759999999999999432e+01,7.364000000000000103e-04,2.588358553214758814e-05
9.800000000000000000e+01,7.487999999999999864e-04,1.655113289173885054e-05
9.840000000000000568e+01,7.210000000000000697e-04,4.311612227462020315e-05
9.879999999999999716e+01,7.638000000000000258e-04,6.143809892892192930e-05
9.920000000000000284e+01,8.520000000000000013e-04,4.421651275259052741e-05
9.959999999999999432e+01,8.293999999999998856e-04,3.119390966198368968e-05
1.000000000000000000e+02,7.110000000000000434e-04,4.951161479895398876e-05
1.004000000000000057e+02,7.663999999999999806e-04,5.017429620831766429e-05
1.007999999999999972e+02,7.791999999999999664e-04,4.786063100294437998e-05
1.012000000000000028e+02,8.015999999999998604e-04,5.859658693132219437e-05
1.015999999999999943e+02,7.688000000000000389e-04,3.620690541871812100e-05
1.020000000000000000e+02,7.311999999999998839e-04,3.564182935821335810e-05
1.024000000000000057e+02,7.089999999999999948e-04,2.092606030766420975e-05
1.027999999999999972e+02,7.110000000000000434e-04,3.785102376422596639e-05
1.032000000000000028e+02,7.036000000000000804e-04,4.860000000000000225e-05
1.035999999999999943e+02,7.161999999999999530e-04,2.901792549442499028e-05
1.040000000000000000e+02,7.364000000000000103e-04,2.814533709160364278e-05
1.044000000000000057e+02,7.362000000000000054e-04,3.400205876119855459e-05
1.047999999999999972e+02,7.638000000000000258e-04,6.642996311906247274e-05
1.052000000000000028e+02,7.615999999999998639e-04,4.043092875510034427e-05
1.055999999999999943e+02,7.513999999999999412e-04,3.994070605284789503e-05
1.060000000000000000e+02,7.891999999999999927e-04,8.702873088813827489e-06
1.064000000000000057e+02,7.489999999999999913e-04,3.874661275518158772e-05
