timestep,H(t)_mean,H(t)_err
4.000000000000000222e-01,7.538285999999999598e-01,8.784607902462258401e-04
8.000000000000000444e-01,6.242189999999999683e-01,1.845556365977473520e-03
1.199999999999999956e+00,5.424755999999999467e-01,4.568993473403078383e-03
1.600000000000000089e+00,4.799322000000000310e-01,3.739225593622297686e-03
2.000000000000000000e+00,4.331533999999999662e-01,2.891143417404259692e-03
2.399999999999999911e+00,3.948815999999999993e-01,3.329416594540251639e-03
2.799999999999999822e+00,3.616620000000000390e-01,4.179655536046000992e-03
3.200000000000000178e+00,3.347630000000000328e-01,3.258810948797123339e-03
3.600000000000000089e+00,3.093808000000000114e-01,2.849230148654194328e-03
4.000000000000000000e+00,2.896252000000000271e-01,2.160657571203730004e-03
4.400000000000000355e+00,2.700829999999999620e-01,2.008289147508392561e-03
4.799999999999999822e+00,2.568518000000000190e-01,2.957298571331612794e-03
5.200000000000000178e+00,2.403220000000000078e-01,3.471099407968602970e-03
5.599999999999999645e+00,2.264381999999999784e-01,3.461878614278668560e-03
6.000000000000000000e+00,2.144014000000000197e-01,2.848878509168126932e-03
6.400000000000000355e+00,2.045386000000000148e-01,2.947447583927489002e-03
6.799999999999999822e+00,1.949847999999999859e-01,2.018296816625346057e-03
7.200000000000000178e+00,1.860360000000000069e-01,1.240579018039558680e-03
7.599999999999999645e+00,1.769216000000000122e-01,2.338744889892866666e-03
8.000000000000000000e+00,1.707299999999999929e-01,1.311121428396316846e-03
8.400000000000000355e+00,1.612586000000000019e-01,1.664431572639743636e-03
8.800000000000000711e+00,1.551051999999999986e-01,9.862730554973094064e-04
9.199999999999999289e+00,1.486559999999999826e-01,1.115794201454731399e-03
9.599999999999999645e+00,1.423992000000000036e-01,3.831060427610103640e-04
1.000000000000000000e+01,1.361574000000000118e-01,2.191792681801815659e-03
1.040000000000000036e+01,1.314603999999999773e-01,1.567879606347373890e-03
1.080000000000000071e+01,1.282818000000000014e-01,1.878185251778962143e-03
1.119999999999999929e+01,1.243541999999999703e-01,1.607108565094465900e-03
1.159999999999999964e+01,1.215652000000000121e-01,1.621125146310424666e-03
1.200000000000000000e+01,1.151519999999999905e-01,1.638291762782197701e-03
1.240000000000000036e+01,1.114572000000000063e-01,2.103129510990704634e-03
1.280000000000000071e+01,1.090635999999999967e-01,1.438485196308950630e-03
1.319999999999999929e+01,1.058937999999999963e-01,1.116005259844236397e-03
1.359999999999999964e+01,1.015284000000000048e-01,1.406587274220836084e-03
1.400000000000000000e+01,9.926080000000001013e-02,1.703717623316728085e-03
1.440000000000000036e+01,9.434919999999999418e-02,1.223346573951961851e-03
1.480000000000000071e+01,9.215099999999999680e-02,1.376897200229559469e-03
1.519999999999999929e+01,8.842019999999999047e-02,1.064334740577416779e-03
1.559999999999999964e+01,8.459400000000001640e-02,1.632658476228264878e-03
1.600000000000000000e+01,8.319899999999999518e-02,7.726069505252984538e-04
1.639999999999999858e+01,8.177220000000000322e-02,6.347878700794476643e-04
1.680000000000000071e+01,7.858180000000000720e-02,1.756525929213685481e-03
1.719999999999999929e+01,7.577120000000001077e-02,9.421720331234639508e-04
1.760000000000000142e+01,7.538240000000000218e-02,1.345064816282099405e-03
1.800000000000000000e+01,7.423519999999998731e-02,1.220812123137709603e-03
1.839999999999999858e+01,7.150420000000000387e-02,1.238002883680000251e-03
1.880000000000000071e+01,7.142160000000000175e-02,1.879745317855587494e-03
1.919999999999999929e+01,6.983960000000000168e-02,9.183978767397050829e-04
1.960000000000000142e+01,6.882899999999998741e-02,8.239540035705872996e-04
2.000000000000000000e+01,6.561100000000000265e-02,4.293832786683711802e-04
2.039999999999999858e+01,6.390319999999999334e-02,5.618253643259618233e-04
2.080000000000000071e+01,6.231400000000000133e-02,7.626292021683929402e-04
2.119999999999999929e+01,6.098220000000000723e-02,5.987215880524106694e-04
2.160000000000000142e+01,5.835079999999999434e-02,9.130971689803883597e-04
2.200000000000000000e+01,5.735479999999999745e-02,6.971913223785841142e-04
2.239999999999999858e+01,5.660259999999998903e-02,1.043561191306001130e-03
2.280000000000000071e+01,5.657539999999999791e-02,9.556207720638986141e-04
2.319999999999999929e+01,5.493660000000000210e-02,1.229313206632060961e-03
2.360000000000000142e+01,5.373400000000000398e-02,7.430002018842256535e-04
2.400000000000000000e+01,5.344079999999999664e-02,1.006570782409264798e-03
2.439999999999999858e+01,5.247100000000000375e-02,1.235856423699775589e-03
2.480000000000000071e+01,5.107740000000000891e-02,7.576924573994385514e-04
2.519999999999999929e+01,5.089799999999999880e-02,1.033873057971819442e-03
2.560000000000000142e+01,4.950240000000000196e-02,2.207730961870120587e-04
2.600000000000000000e+01,4.909440000000000331e-02,1.160316749857554517e-03
2.639999999999999858e+01,4.732340000000000158e-02,1.003251095190032648e-03
2.680000000000000071e+01,4.683899999999999869e-02,1.014167392494946980e-03
2.719999999999999929e+01,4.402860000000000107e-02,7.653734121329277933e-04
2.760000000000000142e+01,4.424259999999999998e-02,1.055497446704634296e-03
2.800000000000000000e+01,4.263639999999999791e-02,7.211659032427977876e-04
2.839999999999999858e+01,4.191559999999999730e-02,3.430863739643415233e-04
2.880000000000000071e+01,4.095320000000000210e-02,7.690327951394537427e-04
2.919999999999999929e+01,4.026020000000000293e-02,1.225075034436667442e-03
2.960000000000000142e+01,4.075700000000000156e-02,1.173039513400976532e-03
3.000000000000000000e+01,3.958920000000000494e-02,8.081864512598570813e-04
3.039999999999999858e+01,3.835639999999999883e-02,5.710764046955540919e-04
3.080000000000000071e+01,3.779180000000000039e-02,4.072758770170412036e-04
3.119999999999999929e+01,3.777160000000000240e-02,6.650113232118689101e-04
3.160000000000000142e+01,3.822640000000000066e-02,7.749446818967145080e-04
3.200000000000000000e+01,3.723859999999999670e-02,9.919604125165476776e-04
3.239999999999999858e+01,3.646359999999999879e-02,1.105303288695007541e-03
3.279999999999999716e+01,3.571359999999999812e-02,1.365313868676356485e-03
3.320000000000000284e+01,3.547120000000000134e-02,1.246654258405273125e-03
3.360000000000000142e+01,3.476980000000000348e-02,7.706121852138072366e-04
3.400000000000000000e+01,3.420600000000000029e-02,1.045612356468686617e-03
3.439999999999999858e+01,3.270279999999999715e-02,1.313405055571205101e-03
3.479999999999999716e+01,3.256440000000000723e-02,1.144108762312394867e-03
3.520000000000000284e+01,3.168040000000000439e-02,1.264919072510174713e-03
3.560000000000000142e+01,3.191739999999999855e-02,7.749729414631193435e-04
3.600000000000000000e+01,3.151439999999999797e-02,1.111474138250638250e-03
3.639999999999999858e+01,3.068399999999999947e-02,1.296512437271621137e-03
3.679999999999999716e+01,3.073779999999999915e-02,7.872830113751980424e-04
3.720000000000000284e+01,3.111140000000000086e-02,1.258577236406253170e-03
3.760000000000000142e+01,3.070880000000000137e-02,9.489964910367165154e-04
3.800000000000000000e+01,2.961319999999999925e-02,4.206160244213244591e-04
3.839999999999999858e+01,2.960900000000000337e-02,8.602751304088708485e-04
3.879999999999999716e+01,2.949839999999999754e-02,9.492069637334100973e-04
3.920000000000000284e+01,2.914980000000000349e-02,1.017274908763604385e-03
3.960000000000000142e+01,2.864639999999999895e-02,8.841711146605048342e-04
4.000000000000000000e+01,2.816760000000000444e-02,6.107534363390844509e-04
4.039999999999999858e+01,2.722279999999999839e-02,5.522719800967638504e-04
4.079999999999999716e+01,2.686640000000000209e-02,5.954958102287536944e-04
4.120000000000000284e+01,2.656620000000000162e-02,3.783508160424659222e-04
4.160000000000000142e+01,2.670640000000000167e-02,6.597504528228836452e-04
4.200000000000000000e+01,2.618540000000000451e-02,3.690067208060035455e-04
4.239999999999999858e+01,2.651959999999999734e-02,7.182716477768002258e-04
4.279999999999999716e+01,2.643799999999999623e-02,8.146847856686659575e-04
4.320000000000000284e+01,2.541660000000000100e-02,2.203909254030211894e-04
4.360000000000000142e+01,2.519339999999999774e-02,3.667164572254702167e-04
4.400000000000000000e+01,2.341419999999999960e-02,5.936382231628956714e-04
4.439999999999999858e+01,2.330360000000000070e-02,6.729744868863897240e-04
4.479999999999999716e+01,2.305040000000000561e-02,8.848519989241141913e-04
4.520000000000000284e+01,2.291460000000000025e-02,1.069944419117179954e-03
4.560000000000000142e+01,2.286099999999999938e-02,1.599720381816772214e-03
4.600000000000000000e+01,2.323760000000000409e-02,1.036034680886696981e-03
4.639999999999999858e+01,2.252620000000000317e-02,7.843141844949638340e-04
4.679999999999999716e+01,2.136679999999999829e-02,9.574819267223792178e-04
4.720000000000000284e+01,2.148219999999999991e-02,5.558154729764188577e-04
4.760000000000000142e+01,2.137379999999999836e-02,6.515641487988729471e-04
4.800000000000000000e+01,2.060319999999999860e-02,5.590612131064003846e-04
4.839999999999999858e+01,2.024439999999999920e-02,5.543186448244370517e-04
4.879999999999999716e+01,2.019480000000000233e-02,6.770582249703495543e-04
4.920000000000000284e+01,1.978219999999999978e-02,5.688328752806048492e-04
4.960000000000000142e+01,2.021940000000000195e-02,4.286571590443815456e-04
5.000000000000000000e+01,2.022200000000000039e-02,2.806977021637337318e-04
5.039999999999999858e+01,1.981119999999999756e-02,2.804008559188079825e-04
5.079999999999999716e+01,1.898139999999999897e-02,3.521898067803782748e-04
5.120000000000000284e+01,1.808119999999999866e-02,2.723794045077559609e-04
5.160000000000000142e+01,1.898499999999999840e-02,2.743237138856212268e-04
5.200000000000000000e+01,1.882320000000000174e-02,4.750722471372115685e-04
5.239999999999999858e+01,1.832300000000000248e-02,4.560093200801932029e-04
5.279999999999999716e+01,1.802319999999999964e-02,6.039673335537275659e-04
5.320000000000000284e+01,1.805539999999999923e-02,6.338464798356142514e-04
5.360000000000000142e+01,1.818840000000000040e-02,7.134308375729212079e-04
5.400000000000000000e+01,1.783199999999999716e-02,5.410882552781936649e-04
5.439999999999999858e+01,1.711440000000000183e-02,9.889291481193179627e-04
5.479999999999999716e+01,1.703439999999999815e-02,7.181350569356715176e-04
5.520000000000000284e+01,1.689339999999999939e-02,6.793029221194326868e-04
5.560000000000000142e+01,1.702920000000000128e-02,5.558442587631894777e-04
5.600000000000000000e+01,1.750060000000000157e-02,7.138926109717058871e-04
5.639999999999999858e+01,1.717139999999999639e-02,5.350021121453633335e-04
5.679999999999999716e+01,1.637780000000000138e-02,4.140407467870762018e-04
5.720000000000000284e+01,1.681540000000000118e-02,5.871608467873175481e-04
5.760000000000000142e+01,1.703460000000000044e-02,6.851067508060329015e-04
5.800000000000000000e+01,1.615779999999999994e-02,6.744908746602873689e-04
5.839999999999999858e+01,1.615940000000000085e-02,8.729183008735696362e-04
5.879999999999999716e+01,1.627100000000000074e-02,9.272197689868353233e-04
5.920000000000000284e+01,1.524919999999999921e-02,6.813729815600266934e-04
5.960000000000000142e+01,1.514340000000000130e-02,6.302645158978885994e-04
6.000000000000000000e+01,1.458859999999999844e-02,4.614821339987063204e-04
6.039999999999999858e+01,1.503160000000000086e-02,5.571380977818697232e-04
6.079999999999999716e+01,1.514039999999999830e-02,2.662640794399426312e-04
6.120000000000000284e+01,1.546599999999999885e-02,4.065251529733429517e-04
6.160000000000000142e+01,1.456220000000000084e-02,1.176513493335286728e-04
6.200000000000000000e+01,1.434060000000000022e-02,3.024633200902217918e-04
6.239999999999999858e+01,1.417900000000000063e-02,3.133260282836393754e-04
6.279999999999999716e+01,1.456780000000000054e-02,5.707885247620176098e-04
6.320000000000000284e+01,1.461900000000000178e-02,4.722703674803236805e-04
6.360000000000000142e+01,1.530620000000000071e-02,4.047985177838478573e-04
6.400000000000000000e+01,1.450759999999999897e-02,3.062942376212779926e-04
6.440000000000000568e+01,1.516879999999999964e-02,3.925276296007705439e-04
6.479999999999999716e+01,1.442579999999999904e-02,1.818571967231430420e-04
6.520000000000000284e+01,1.387919999999999952e-02,4.093549071404908282e-04
6.559999999999999432e+01,1.432040000000000049e-02,5.600764769207862382e-04
6.600000000000000000e+01,1.349559999999999996e-02,7.868962193326382425e-04
6.640000000000000568e+01,1.363580000000000000e-02,9.494513889610150083e-04
6.679999999999999716e+01,1.410319999999999976e-02,1.000339212467450797e-03
6.720000000000000284e+01,1.393520000000000002e-02,8.292522173621245506e-04
6.759999999999999432e+01,1.421319999999999875e-02,1.148331241410769678e-03
6.800000000000000000e+01,1.443259999999999856e-02,1.073139347894763859e-03
6.840000000000000568e+01,1.407180000000000063e-02,7.926239587597636417e-04
6.879999999999999716e+01,1.352659999999999973e-02,9.993498686646229423e-04
6.920000000000000284e+01,1.325240000000000098e-02,1.144148093561318412e-03
6.959999999999999432e+01,1.360639999999999940e-02,1.027762161202677932e-03
7.000000000000000000e+01,1.354960000000000019e-02,9.755851884894521870e-04
7.040000000000000568e+01,1.347100000000000034e-02,1.026339514975429298e-03
7.079999999999999716e+01,1.330820000000000093e-02,1.168902108818355677e-03
7.120000000000000284e+01,1.278620000000000104e-02,1.353503136309627906e-03
7.159999999999999432e+01,1.311359999999999956e-02,1.240955583411428509e-03
7.200000000000000000e+01,1.347139999999999969e-02,1.326819264255685825e-03
7.240000000000000568e+01,1.264979999999999924e-02,1.627418581680816411e-03
7.279999999999999716e+01,1.192979999999999909e-02,1.292889801955294030e-03
7.320000000000000284e+01,1.151740000000000055e-02,1.080144508850552085e-03
7.359999999999999432e+01,1.077760000000000003e-02,9.875792930190464575e-04
7.400000000000000000e+01,1.206899999999999987e-02,1.166673047601597592e-03
7.440000000000000568e+01,1.083119999999999916e-02,8.634959988326522612e-04
7.479999999999999716e+01,1.063520000000000090e-02,6.558932382636672087e-04
7.520000000000000284e+01,1.047159999999999931e-02,5.428516924538413476e-04
7.559999999999999432e+01,1.082520000000000010e-02,4.939283753744059613e-04
7.600000000000000000e+01,1.029959999999999903e-02,7.113408887446298406e-04
7.640000000000000568e+01,1.027579999999999986e-02,7.618117483998259861e-04
7.679999999999999716e+01,1.030340000000000075e-02,6.779571225379963251e-04
7.720000000000000284e+01,9.971999999999999961e-03,5.229798275268367908e-04
7.759999999999999432e+01,1.013779999999999890e-02,4.769831653213768108e-04
7.800000000000000000e+01,9.587000000000000036e-03,6.215590076573581898e-04
7.840000000000000568e+01,9.972599999999999867e-03,7.652186354238896303e-04
7.879999999999999716e+01,1.052340000000000220e-02,4.705394351167604548e-04
7.920000000000000284e+01,9.866400000000000864e-03,4.885411548682465875e-04
7.959999999999999432e+01,1.022360000000000109e-02,3.026175143642548899e-04
8.000000000000000000e+01,1.068840000000000068e-02,4.152739577676405535e-04
8.040000000000000568e+01,9.698000000000001758e-03,3.769962864538587820e-04
8.079999999999999716e+01,9.164399999999999630e-03,2.744504691196573759e-04
8.120000000000000284e+01,9.445200000000000817e-03,3.248729597858214871e-04
8.159999999999999432e+01,9.556200000000000805e-03,4.646008394310108844e-04
8.200000000000000000e+01,9.446199999999998348e-03,4.168760487243179267e-04
8.240000000000000568e+01,9.786200000000000107e-03,3.231882423603927375e-04
8.279999999999999716e+01,1.012640000000000068e-02,4.804438156538179188e-04
8.320000000000000284e+01,1.009759999999999998e-02,5.416002769570931559e-04
8.359999999999999432e+01,9.816399999999999432e-03,5.578342585392186788e-04
8.400000000000000000e+01,9.472799999999999970e-03,6.533912610373664382e-04
8.440000000000000568e+01,9.023400000000000865e-03,5.142018669744402018e-04
8.479999999999999716e+01,8.966800000000000465e-03,4.240927257098380259e-04
8.520000000000000284e+01,9.054399999999998908e-03,5.482743473845915405e-04
8.559999999999999432e+01,9.026400000000000395e-03,3.659853275747538756e-04
8.600000000000000000e+01,8.601600000000000912e-03,2.369231098901075877e-04
8.640000000000000568e+01,8.742599999999999677e-03,2.818227457108455443e-04
8.679999999999999716e+01,8.325799999999999521e-03,6.069049678491681213e-04
8.720000000000000284e+01,8.266400000000000137e-03,4.052239627662706438e-04
8.759999999999999432e+01,8.461199999999998583e-03,1.708684874399020448e-04
8.800000000000000000e+01,8.319399999999999365e-03,2.788498879325575718e-04
8.840000000000000568e+01,8.124799999999999731e-03,5.065483589944793285e-04
8.879999999999999716e+01,8.014200000000000837e-03,6.969770010552715301e-04
8.920000000000000284e+01,8.181400000000000131e-03,4.800396441961850324e-04
8.959999999999999432e+01,8.207799999999999471e-03,3.374011558960638845e-04
9.000000000000000000e+01,8.349999999999999784e-03,5.330691324772050431e-04
9.040000000000000568e+01,8.577400000000000649e-03,6.562463409421798481e-04
9.079999999999999716e+01,8.068399999999999878e-03,4.585768855928087570e-04
9.120000000000000284e+01,7.897799999999999959e-03,5.357719104245759964e-04
9.159999999999999432e+01,8.008999999999998759e-03,3.157367574420185579e-04
9.200000000000000000e+01,8.319000000000000006e-03,2.999711652809315243e-04
9.240000000000000568e+01,8.829799999999998761e-03,3.866179509541688326e-04
9.279999999999999716e+01,8.659000000000000030e-03,2.801815482861068980e-04
9.320000000000000284e+01,8.856400000000000383e-03,2.527670073407524507e-04
9.359999999999999432e+01,8.599400000000000099e-03,1.574142941412882924e-04
9.400000000000000000e+01,9.218199999999999311e-03,2.641591187144596794e-04
9.440000000000000568e+01,8.568799999999999681e-03,4.209937529227720751e-04
9.479999999999999716e+01,8.487200000000000299e-03,4.779553744859452516e-04
9.520000000000000284e+01,8.177200000000000787e-03,3.062215537809184957e-04
9.559999999999999432e+01,7.952799999999999453e-03,2.364549428538129919e-04
9.600000000000000000e+01,8.123399999999999371e-03,4.876581384535684602e-04
9.640000000000000568e+01,8.374400000000000593e-03,3.566937902459193697e-04
9.679999999999999716e+01,8.177000000000000240e-03,5.775509501334060054e-04
9.720000000000000284e+01,8.487199999999998565e-03,7.013030300804353389e-04
9.759999999999999432e+01,8.035399999999999834e-03,5.695489970143041399e-04
9.800000000000000000e+01,7.614199999999998920e-03,4.975276273735962113e-04
9.840000000000000568e+01,7.529600000000000008e-03,3.938122141325734924e-04
9.879999999999999716e+01,7.952999999999998265e-03,5.453291666507487524e-04
9.920000000000000284e+01,8.350199999999998596e-03,4.855969934009063795e-04
9.959999999999999432e+01,8.095399999999999124e-03,6.051783704000003291e-04
1.000000000000000000e+02,7.899399999999999131e-03,5.753532480137745755e-04
1.004000000000000057e+02,8.488199999999999565e-03,3.578795048616223635e-04
1.007999999999999972e+02,8.519599999999998702e-03,6.665650455882006801e-04
1.012000000000000028e+02,8.181400000000000131e-03,4.948907556218846157e-04
1.015999999999999943e+02,8.236999999999999530e-03,5.423118106772153177e-04
1.020000000000000000e+02,7.840400000000000841e-03,3.449680564921918055e-04
1.024000000000000057e+02,7.759799999999999857e-03,5.764795226198411423e-04
1.027999999999999972e+02,7.556799999999999802e-03,4.446705971840278515e-04
1.032000000000000028e+02,7.497800000000000645e-03,4.174914849431063195e-04
1.035999999999999943e+02,7.185799999999999133e-03,6.131621645209363661e-04
1.040000000000000000e+02,7.524400000000000532e-03,4.709170415264242308e-04
1.044000000000000057e+02,7.578799999999999253e-03,6.409901247289228558e-04
1.047999999999999972e+02,7.833400000000000779e-03,5.912218365385365311e-04
1.052000000000000028e+02,7.327999999999999445e-03,7.946625069801645713e-04
1.055999999999999943e+02,7.694799999999999904e-03,4.952762259588075521e-04
1.060000000000000000e+02,8.175599999999999881e-03,3.507883407412509054e-04
1.064000000000000057e+02,7.807999999999999836e-03,4.285350627428285270e-04
