timestep,H(t)_mean,H(t)_err
4.000000000000000222e-01,5.536187999999999665e-01,8.825878653142715151e-04
8.000000000000000444e-01,3.368791999999999898e-01,6.719294159359300500e-04
1.199999999999999956e+00,2.435947999999999725e-01,4.422092717255027695e-04
1.600000000000000089e+00,1.905219999999999969e-01,6.025855955795826049e-04
2.000000000000000000e+00,1.547556000000000209e-01,2.092067398531882922e-04
2.399999999999999911e+00,1.297012000000000165e-01,4.874379345106439059e-04
2.799999999999999822e+00,1.115304000000000018e-01,2.780121580075227091e-04
3.200000000000000178e+00,9.684620000000000728e-02,3.083221367336428341e-04
3.600000000000000089e+00,8.508599999999999497e-02,3.798558937281342656e-04
4.000000000000000000e+00,7.592400000000000537e-02,3.826487945884563652e-04
4.400000000000000355e+00,6.805700000000000638e-02,2.638861496933859563e-04
4.799999999999999822e+00,6.147519999999999374e-02,4.337039773854970445e-04
5.200000000000000178e+00,5.535579999999999667e-02,1.567282361286570676e-04
5.599999999999999645e+00,5.015519999999999701e-02,3.033838163119460503e-04
6.000000000000000000e+00,4.671319999999999639e-02,2.402532830160710332e-04
6.400000000000000355e+00,4.293940000000000257e-02,2.973221485190772283e-04
6.799999999999999822e+00,3.909259999999999818e-02,2.634463133163949351e-04
7.200000000000000178e+00,3.680440000000000100e-02,2.781033261217848271e-04
7.599999999999999645e+00,3.427299999999999791e-02,4.851076169263892355e-04
8.000000000000000000e+00,3.187919999999999643e-02,4.574235892474284534e-04
8.400000000000000355e+00,3.028279999999999861e-02,3.120697678404617281e-04
8.800000000000000711e+00,2.824120000000000102e-02,8.313687509162268497e-05
9.199999999999999289e+00,2.674400000000000041e-02,3.748491696669476077e-04
9.599999999999999645e+00,2.512939999999999618e-02,2.080854632116331104e-04
1.000000000000000000e+01,2.379180000000000184e-02,2.941138215045322412e-04
1.040000000000000036e+01,2.267659999999999815e-02,1.951418970902965458e-04
1.080000000000000071e+01,2.159599999999999714e-02,1.576854463798102771e-04
1.119999999999999929e+01,2.053600000000000217e-02,1.531051925964624382e-04
1.159999999999999964e+01,1.926900000000000140e-02,1.802193108409860789e-04
1.200000000000000000e+01,1.876300000000000190e-02,2.134694357513502170e-04
1.240000000000000036e+01,1.792580000000000215e-02,1.425427655126698873e-04
1.280000000000000071e+01,1.689999999999999836e-02,1.231499086479565148e-04
1.319999999999999929e+01,1.654599999999999821e-02,6.897100840208158937e-05
1.359999999999999964e+01,1.578099999999999989e-02,7.393172526054046074e-05
1.400000000000000000e+01,1.502039999999999972e-02,1.052153030694680691e-04
1.440000000000000036e+01,1.443960000000000209e-02,6.808127495868459222e-05
1.480000000000000071e+01,1.373940000000000231e-02,3.127985933472206769e-04
1.519999999999999929e+01,1.307159999999999919e-02,1.878040468147584971e-04
1.559999999999999964e+01,1.258980000000000168e-02,1.420022535032454273e-04
1.600000000000000000e+01,1.219940000000000087e-02,1.978142057588383126e-04
1.639999999999999858e+01,1.166339999999999912e-02,1.300079228354949958e-04
1.680000000000000071e+01,1.157200000000000242e-02,7.774445317834584876e-05
1.719999999999999929e+01,1.131520000000000095e-02,1.051272562183565610e-04
1.760000000000000142e+01,1.087420000000000053e-02,1.424381971242264953e-04
1.800000000000000000e+01,1.031560000000000116e-02,9.850766467641011367e-05
1.839999999999999858e+01,1.013359999999999955e-02,1.240079029739636748e-04
1.880000000000000071e+01,9.755000000000001517e-03,1.242396877008309340e-04
1.919999999999999929e+01,9.374800000000000841e-03,4.512471606558885335e-05
1.960000000000000142e+01,9.123799999999999619e-03,8.183300067821056728e-05
2.000000000000000000e+01,9.020799999999998958e-03,9.999019951975279363e-05
2.039999999999999858e+01,8.686799999999999730e-03,1.281145581110905462e-04
2.080000000000000071e+01,8.543199999999999059e-03,1.460145198259406492e-04
2.119999999999999929e+01,8.257999999999997981e-03,1.845957745995287691e-04
2.160000000000000142e+01,7.984399999999999137e-03,5.883757302948520340e-05
2.200000000000000000e+01,7.812399999999999727e-03,8.720011467882374777e-05
2.239999999999999858e+01,7.620200000000000584e-03,1.202253716983232656e-04
2.280000000000000071e+01,7.430199999999999652e-03,1.168312458206280336e-04
2.319999999999999929e+01,7.118600000000000101e-03,4.682691533722879859e-05
2.360000000000000142e+01,7.064000000000000834e-03,1.053655541436573033e-04
2.400000000000000000e+01,6.982799999999999944e-03,1.147568734324876284e-04
2.439999999999999858e+01,6.839200000000001008e-03,9.011625824455866095e-05
2.480000000000000071e+01,6.535799999999999596e-03,2.312660805219822751e-05
2.519999999999999929e+01,6.189999999999999322e-03,5.729659675757368313e-05
2.560000000000000142e+01,6.161600000000001451e-03,6.316533859641694569e-05
2.600000000000000000e+01,6.050200000000000369e-03,9.852329673737079149e-05
2.639999999999999858e+01,5.979199999999999619e-03,1.522629304853942404e-05
2.680000000000000071e+01,5.878200000000000092e-03,5.200230764110372111e-05
2.719999999999999929e+01,5.653599999999999945e-03,7.954407583220768319e-05
2.760000000000000142e+01,5.588999999999999350e-03,1.042175609002628901e-04
2.800000000000000000e+01,5.580599999999999797e-03,6.921892804717505161e-05
2.839999999999999858e+01,5.514199999999999484e-03,7.961620438076661517e-05
2.880000000000000071e+01,5.378400000000000195e-03,7.754005416557291223e-05
2.919999999999999929e+01,5.263200000000000864e-03,1.115501680859333565e-04
2.960000000000000142e+01,5.212200000000000166e-03,1.205949418508089237e-04
3.000000000000000000e+01,5.001800000000000690e-03,1.061076811545706196e-04
3.039999999999999858e+01,4.892399999999999874e-03,8.126413723162257698e-05
3.080000000000000071e+01,4.872200000000000142e-03,1.056259437827658255e-04
3.119999999999999929e+01,4.564799999999999934e-03,9.096449856949690403e-05
3.160000000000000142e+01,4.415199999999999333e-03,2.204177851263362258e-05
3.200000000000000000e+01,4.403200000000000343e-03,9.538679153845153462e-05
3.239999999999999858e+01,4.457800000000000477e-03,7.000957077428773768e-05
3.279999999999999716e+01,4.396999999999999867e-03,3.839791661014962362e-05
3.320000000000000284e+01,4.334199999999999858e-03,7.923850074301000705e-05
3.360000000000000142e+01,4.152000000000000308e-03,4.275394718619554069e-05
3.400000000000000000e+01,4.010200000000000223e-03,7.353189784032506120e-05
3.439999999999999858e+01,4.030600000000000502e-03,8.593928089063816028e-05
3.479999999999999716e+01,4.051199999999999593e-03,5.829099415861759031e-05
3.520000000000000284e+01,3.963799999999999095e-03,5.446595266769870339e-05
3.560000000000000142e+01,3.832199999999999582e-03,6.193658046744270561e-05
3.600000000000000000e+01,3.974000000000000102e-03,2.274642829105264294e-05
3.639999999999999858e+01,3.816200000000000061e-03,5.702052262124577891e-05
3.679999999999999716e+01,3.783800000000000358e-03,1.766344813449515036e-04
3.720000000000000284e+01,3.633999999999999644e-03,7.794036181594238949e-05
3.760000000000000142e+01,3.589599999999999649e-03,6.028482396092738136e-05
3.800000000000000000e+01,3.451800000000000094e-03,9.674574926062641197e-05
3.839999999999999858e+01,3.472200000000000373e-03,1.142302061628184341e-04
3.879999999999999716e+01,3.506599999999999908e-03,1.395365901833636876e-04
3.920000000000000284e+01,3.377000000000000227e-03,6.046900032247924618e-05
3.960000000000000142e+01,3.282000000000000195e-03,7.286768831244746321e-05
4.000000000000000000e+01,3.271799999999999622e-03,9.884907687985763859e-05
4.039999999999999858e+01,3.222400000000000264e-03,6.769239248246439059e-05
4.079999999999999716e+01,3.104399999999999781e-03,8.196743255708331503e-05
4.120000000000000284e+01,3.059000000000000087e-03,6.170332243890924706e-05
4.160000000000000142e+01,2.990399999999999829e-03,4.280724237789672304e-05
4.200000000000000000e+01,2.992000000000000735e-03,7.105068613321055646e-05
4.239999999999999858e+01,3.079399999999999932e-03,9.623232305208055237e-05
4.279999999999999716e+01,2.951000000000000064e-03,1.111269544260077289e-04
4.320000000000000284e+01,2.919600000000000060e-03,4.645815321340269360e-05
4.360000000000000142e+01,2.803599999999999842e-03,6.541299565071145730e-05
4.400000000000000000e+01,2.697999999999999877e-03,1.288534050772427799e-04
4.439999999999999858e+01,2.710200000000000282e-03,6.995527142396060845e-05
4.479999999999999716e+01,2.633200000000000037e-03,6.112233634278065519e-05
4.520000000000000284e+01,2.635199999999999869e-03,4.369370664065939496e-05
4.560000000000000142e+01,2.718400000000000157e-03,4.608644052213188048e-05
4.600000000000000000e+01,2.695399999999999706e-03,7.990281597040244674e-05
4.639999999999999858e+01,2.556600000000000018e-03,8.264296703289402757e-05
4.679999999999999716e+01,2.569000000000000537e-03,4.917824722374722731e-05
4.720000000000000284e+01,2.596000000000000217e-03,6.208542502069226471e-05
4.760000000000000142e+01,2.544199999999999934e-03,6.021660900449304226e-05
4.800000000000000000e+01,2.494199999999999803e-03,8.525690587864424451e-05
4.839999999999999858e+01,2.434200000000000079e-03,1.020820258419669155e-04
4.879999999999999716e+01,2.401000000000000356e-03,6.295474565114217045e-05
4.920000000000000284e+01,2.428000000000000037e-03,4.250529378795073421e-05
4.960000000000000142e+01,2.533800000000000115e-03,6.047511885064795747e-05
5.000000000000000000e+01,2.400999999999999922e-03,5.003498775856748010e-05
5.039999999999999858e+01,2.399000000000000091e-03,5.512077648219408156e-05
5.079999999999999716e+01,2.274400000000000206e-03,6.927236101072344152e-05
5.120000000000000284e+01,2.295400000000000391e-03,7.973932530439421101e-05
5.160000000000000142e+01,2.282800000000000194e-03,5.777490804839065003e-05
5.200000000000000000e+01,2.232599999999999949e-03,6.951589746237904466e-05
5.239999999999999858e+01,2.170599999999999960e-03,5.132893920587097410e-05
5.279999999999999716e+01,2.110200000000000443e-03,2.581356232680803766e-05
5.320000000000000284e+01,2.199600000000000340e-03,1.799611069092431367e-05
5.360000000000000142e+01,2.222199999999999696e-03,3.966535011820767411e-05
5.400000000000000000e+01,2.201600000000000171e-03,3.043123395460650888e-05
5.439999999999999858e+01,2.151800000000000154e-03,4.176409941564644598e-05
5.479999999999999716e+01,2.060600000000000105e-03,6.461470420887184074e-05
5.520000000000000284e+01,2.031600000000000159e-03,6.691531962114508091e-05
5.560000000000000142e+01,1.946400000000000257e-03,5.361772095119303060e-05
5.600000000000000000e+01,1.983799999999999973e-03,5.309557420350590232e-05
5.639999999999999858e+01,1.944399999999999991e-03,1.046430121890611287e-04
5.679999999999999716e+01,1.854800000000000199e-03,1.159311864857769873e-04
5.720000000000000284e+01,1.913000000000000204e-03,1.048622906482592578e-04
5.760000000000000142e+01,1.882199999999999889e-03,3.532477883865656134e-05
5.800000000000000000e+01,1.908999999999999890e-03,4.185570450966030444e-05
5.839999999999999858e+01,1.848999999999999949e-03,7.362404498531713271e-05
5.879999999999999716e+01,1.805199999999999860e-03,7.787644059662714635e-05
5.920000000000000284e+01,1.778199999999999963e-03,8.005585550101878612e-05
5.960000000000000142e+01,1.853000000000000046e-03,8.957008429157579238e-05
6.000000000000000000e+01,1.780199999999999795e-03,6.954883176588952745e-05
6.039999999999999858e+01,1.753599999999999907e-03,3.819502585416062560e-05
6.079999999999999716e+01,1.850800000000000101e-03,5.425992996678121171e-05
6.120000000000000284e+01,1.822000000000000052e-03,4.008366250731088150e-05
6.160000000000000142e+01,1.784399999999999788e-03,3.874093442342348977e-05
6.200000000000000000e+01,1.745199999999999920e-03,6.228755895040356220e-05
6.239999999999999858e+01,1.761800000000000215e-03,6.984511436027578569e-05
6.279999999999999716e+01,1.689200000000000076e-03,3.521278177026062944e-05
6.320000000000000284e+01,1.651600000000000247e-03,3.924359820403833043e-05
6.360000000000000142e+01,1.674400000000000150e-03,2.730128202117988579e-05
6.400000000000000000e+01,1.562600000000000143e-03,4.951222071367836848e-05
6.440000000000000568e+01,1.647600000000000149e-03,5.450743068610004288e-05
6.479999999999999716e+01,1.691199999999999908e-03,3.380443757851916514e-05
6.520000000000000284e+01,1.695400000000000119e-03,3.346281518342412607e-05
6.559999999999999432e+01,1.686999999999999915e-03,5.413871073455665979e-05
6.600000000000000000e+01,1.612200000000000048e-03,6.555562523536786535e-05
6.640000000000000568e+01,1.556399999999999884e-03,4.571936132537286128e-05
6.679999999999999716e+01,1.525400000000000107e-03,4.507504853020129914e-05
6.720000000000000284e+01,1.415400000000000035e-03,2.476004846521912917e-05
6.759999999999999432e+01,1.396600000000000012e-03,4.043711166737800749e-05
6.800000000000000000e+01,1.497999999999999766e-03,3.148650504581287929e-05
6.840000000000000568e+01,1.479400000000000073e-03,6.062969569443674264e-05
6.879999999999999716e+01,1.417399999999999867e-03,2.543737407831241451e-05
6.920000000000000284e+01,1.427799999999999903e-03,7.980313277058737932e-05
6.959999999999999432e+01,1.512800000000000126e-03,6.098557206421860021e-05
7.000000000000000000e+01,1.514800000000000174e-03,8.764895892136994682e-05
7.040000000000000568e+01,1.462799999999999994e-03,7.161871263852762060e-05
7.079999999999999716e+01,1.487599999999999947e-03,7.287153079220990922e-05
7.120000000000000284e+01,1.454599999999999903e-03,7.130890547470209655e-05
7.159999999999999432e+01,1.396400000000000115e-03,6.202306022762822213e-05
7.200000000000000000e+01,1.344600000000000049e-03,5.105056317025305409e-05
7.240000000000000568e+01,1.373599999999999995e-03,6.886842527602907876e-05
7.279999999999999716e+01,1.456599999999999952e-03,6.782300494669930456e-05
7.320000000000000284e+01,1.371599999999999946e-03,7.910916508218247963e-05
7.359999999999999432e+01,1.404799999999999886e-03,6.413688486354788274e-05
7.400000000000000000e+01,1.354800000000000188e-03,4.115628749049167582e-05
7.440000000000000568e+01,1.375600000000000043e-03,3.725265091238472382e-05
7.479999999999999716e+01,1.352999999999999819e-03,7.665181015475107384e-05
7.520000000000000284e+01,1.342600000000000000e-03,7.551264794721478102e-05
7.559999999999999432e+01,1.268000000000000030e-03,5.198365127614640953e-05
7.600000000000000000e+01,1.319599999999999983e-03,4.609837307324413000e-05
7.640000000000000568e+01,1.286599999999999940e-03,4.801520592479009849e-05
7.679999999999999716e+01,1.265599999999999972e-03,4.492282270739449363e-05
7.720000000000000284e+01,1.205599999999999814e-03,3.354489528974565561e-05
7.759999999999999432e+01,1.249000000000000110e-03,5.959026766175832114e-05
7.800000000000000000e+01,1.187000000000000121e-03,3.199843746185117532e-05
7.840000000000000568e+01,1.199600000000000102e-03,5.946982428089055540e-05
7.879999999999999716e+01,1.228399999999999935e-03,2.758006526460734105e-05
7.920000000000000284e+01,1.222200000000000109e-03,2.014795274959716803e-05
7.959999999999999432e+01,1.172400000000000091e-03,5.165423506354535355e-05
8.000000000000000000e+01,1.149400000000000074e-03,4.078308472884318290e-05
8.040000000000000568e+01,1.154199999999999974e-03,2.042890109624106551e-05
8.079999999999999716e+01,1.201000000000000028e-03,5.578261377884688894e-05
8.120000000000000284e+01,1.156399999999999919e-03,2.962701469942592407e-05
8.159999999999999432e+01,1.120200000000000015e-03,7.713715058258244477e-05
8.200000000000000000e+01,1.156399999999999919e-03,6.310594266786607499e-05
8.240000000000000568e+01,1.239199999999999980e-03,5.349242937089323955e-05
8.279999999999999716e+01,1.158600000000000081e-03,5.289102003175964300e-05
8.320000000000000284e+01,1.196999999999999930e-03,4.417125762302902378e-05
8.359999999999999432e+01,1.073399999999999962e-03,2.009378013217022750e-05
8.400000000000000000e+01,1.130799999999999948e-03,3.471080523410542587e-05
8.440000000000000568e+01,1.131000000000000061e-03,6.902390890119163437e-05
8.479999999999999716e+01,1.132999999999999893e-03,5.252523203185303723e-05
8.520000000000000284e+01,1.150200000000000094e-03,2.323230509441539634e-05
8.559999999999999432e+01,1.130799999999999948e-03,2.165040415327158712e-05
8.600000000000000000e+01,1.122200000000000064e-03,4.555699726715973743e-05
8.640000000000000568e+01,1.162799999999999858e-03,5.886968659675367627e-05
8.679999999999999716e+01,1.164999999999999803e-03,2.440901472816959765e-05
8.720000000000000284e+01,1.188400000000000047e-03,4.666433327499709666e-05
8.759999999999999432e+01,1.115800000000000125e-03,4.965923881816958582e-05
8.800000000000000000e+01,1.079600000000000004e-03,5.052187644971233894e-05
8.840000000000000568e+01,1.092599999999999995e-03,5.986701930111437827e-05
8.879999999999999716e+01,1.122600000000000074e-03,6.388630526176949356e-05
8.920000000000000284e+01,1.128799999999999899e-03,5.144939261060328396e-05
8.959999999999999432e+01,1.071200000000000017e-03,2.739415996156842787e-05
9.000000000000000000e+01,1.030800000000000119e-03,2.704144966528238304e-05
9.040000000000000568e+01,1.022200000000000018e-03,2.221576017155388121e-05
9.079999999999999716e+01,9.775999999999999100e-04,4.713660997568662329e-05
9.120000000000000284e+01,9.626000000000000875e-04,3.632987751149183934e-05
9.159999999999999432e+01,1.039400000000000003e-03,3.091536834650362612e-05
9.200000000000000000e+01,1.051999999999999984e-03,5.100196074662228829e-05
9.240000000000000568e+01,1.071399999999999913e-03,4.183849901705366661e-05
9.279999999999999716e+01,1.130800000000000164e-03,4.618268073639725040e-05
9.320000000000000284e+01,1.043599999999999996e-03,5.045948870133347587e-05
9.359999999999999432e+01,1.062599999999999916e-03,4.014299440749282132e-05
9.400000000000000000e+01,9.520000000000000467e-04,3.348880409928069911e-05
9.440000000000000568e+01,9.647999999999998157e-04,5.586716388004675922e-05
9.479999999999999716e+01,1.071400000000000130e-03,5.416050221332886262e-05
9.520000000000000284e+01,1.046000000000000055e-03,5.087730338766000004e-05
9.559999999999999432e+01,9.921999999999999396e-04,8.233917658077472717e-05
9.600000000000000000e+01,1.013599999999999918e-03,4.782112503904524780e-05
9.640000000000000568e+01,9.883999999999999557e-04,3.283991473801358167e-05
9.679999999999999716e+01,9.965999999999998298e-04,3.179716968536664952e-05
9.720000000000000284e+01,9.433999999999999461e-04,3.014067019825538530e-05
9.759999999999999432e+01,9.986000000000000952e-04,1.873392644375439274e-05
9.800000000000000000e+01,9.350000000000000672e-04,5.700964830622971379e-05
9.840000000000000568e+01,9.520000000000000467e-04,4.971518882595135614e-05
9.879999999999999716e+01,9.774000000000000136e-04,4.810051974771164260e-05
9.920000000000000284e+01,9.177999999999998659e-04,3.540677901193499622e-05
9.959999999999999432e+01,9.202000000000000327e-04,3.603248534309006168e-05
1.000000000000000000e+02,8.794000000000000167e-04,2.775716123813817243e-05
1.004000000000000057e+02,8.796000000000000216e-04,3.955957532633533813e-05
1.007999999999999972e+02,8.859999999999999603e-04,5.585964554130287566e-05
1.012000000000000028e+02,8.281999999999999649e-04,5.610739701679270193e-05
1.015999999999999943e+02,8.626000000000000421e-04,4.068242863940156194e-05
1.020000000000000000e+02,8.988000000000001630e-04,5.570762963903597826e-05
1.024000000000000057e+02,8.963999999999999963e-04,2.361059084394119556e-05
1.027999999999999972e+02,8.859999999999999603e-04,3.489985673323027000e-05
1.032000000000000028e+02,9.285999999999999116e-04,2.457356303021603365e-05
1.035999999999999943e+02,8.815999999999999618e-04,3.608268282708479625e-05
1.040000000000000000e+02,8.497999999999998394e-04,1.441318840506845519e-05
1.044000000000000057e+02,8.201999999999998788e-04,5.678027826631355096e-06
1.047999999999999972e+02,8.691999999999999857e-04,3.594773984550348503e-05
1.052000000000000028e+02,9.308000000000000735e-04,6.238781932396737936e-05
1.055999999999999943e+02,9.135999999999999807e-04,3.614775235059574781e-05
1.060000000000000000e+02,9.478000000000000530e-04,2.635602397934865105e-05
1.064000000000000057e+02,9.774000000000000136e-04,3.471253375943623580e-05
