timestep,H(t)_mean,H(t)_err
4.000000000000000222e-01,5.466663999999999968e-01,8.782494861939908835e-04
8.000000000000000444e-01,3.242213999999999929e-01,4.918356026153475249e-04
1.199999999999999956e+00,2.317569999999999908e-01,1.393538912266176167e-03
1.600000000000000089e+00,1.793725999999999932e-01,8.867833219000024591e-04
2.000000000000000000e+00,1.446454000000000073e-01,7.859549987117585334e-04
2.399999999999999911e+00,1.204584000000000071e-01,2.090515725843764255e-04
2.799999999999999822e+00,1.040389999999999926e-01,5.881412245371005340e-04
3.200000000000000178e+00,9.026359999999999939e-02,5.047916996148019489e-04
3.600000000000000089e+00,7.904420000000000890e-02,3.646147830244961295e-04
4.000000000000000000e+00,6.964560000000000195e-02,2.501888486723574168e-04
4.400000000000000355e+00,6.249220000000001163e-02,3.857157502617694481e-04
4.799999999999999822e+00,5.642519999999999480e-02,3.869711100327779250e-04
5.200000000000000178e+00,5.150939999999999686e-02,3.313539799066854679e-04
5.599999999999999645e+00,4.766839999999999966e-02,5.040065078944910978e-04
6.000000000000000000e+00,4.281279999999999808e-02,4.072036836768546286e-04
6.400000000000000355e+00,3.925060000000000354e-02,1.784734153872787022e-04
6.799999999999999822e+00,3.659559999999999202e-02,3.292323799385470356e-04
7.200000000000000178e+00,3.381580000000000003e-02,3.334395597405922455e-04
7.599999999999999645e+00,3.164299999999999752e-02,2.460197146571795621e-04
8.000000000000000000e+00,2.937899999999999887e-02,4.104523114808832475e-04
8.400000000000000355e+00,2.734480000000000244e-02,2.923862855880898543e-04
8.800000000000000711e+00,2.555119999999999614e-02,3.124079704488986011e-04
9.199999999999999289e+00,2.474199999999999663e-02,3.554120144283249541e-04
9.599999999999999645e+00,2.337220000000000270e-02,3.204990483605216103e-04
1.000000000000000000e+01,2.191760000000000236e-02,3.512478612034527418e-04
1.040000000000000036e+01,2.058619999999999894e-02,3.309187815763858917e-04
1.080000000000000071e+01,1.930299999999999724e-02,3.926846062681855262e-04
1.119999999999999929e+01,1.835460000000000216e-02,3.848221147491398737e-04
1.159999999999999964e+01,1.755179999999999935e-02,2.821214986490750256e-04
1.200000000000000000e+01,1.700979999999999853e-02,1.008490951868185471e-04
1.240000000000000036e+01,1.625660000000000299e-02,2.685072810930834030e-04
1.280000000000000071e+01,1.566419999999999965e-02,2.993251409420865858e-04
1.319999999999999929e+01,1.501600000000000157e-02,2.655501835811831094e-04
1.359999999999999964e+01,1.399459999999999940e-02,1.649604801156930988e-04
1.400000000000000000e+01,1.338920000000000041e-02,2.112594139914244118e-04
1.440000000000000036e+01,1.287400000000000003e-02,8.437357406202511607e-05
1.480000000000000071e+01,1.267180000000000042e-02,1.900182622802345546e-04
1.519999999999999929e+01,1.246940000000000028e-02,2.709200250996591283e-04
1.559999999999999964e+01,1.194559999999999893e-02,2.079729790141016739e-04
1.600000000000000000e+01,1.119659999999999753e-02,1.552274460267899069e-04
1.639999999999999858e+01,1.094939999999999976e-02,2.227279955461368584e-04
1.680000000000000071e+01,1.049879999999999911e-02,1.097694857417122867e-04
1.719999999999999929e+01,1.016940000000000031e-02,1.075065579395043547e-04
1.760000000000000142e+01,9.895199999999999829e-03,1.524002624669657956e-04
1.800000000000000000e+01,9.474199999999998595e-03,1.876972029626439674e-04
1.839999999999999858e+01,9.337399999999999173e-03,2.203918328795333105e-04
1.880000000000000071e+01,8.834200000000000386e-03,1.483551145057020919e-04
1.919999999999999929e+01,8.610600000000001239e-03,1.490763562742262061e-04
1.960000000000000142e+01,8.144600000000000103e-03,2.306511651824027338e-04
2.000000000000000000e+01,7.944599999999999579e-03,1.504023271096560947e-04
2.039999999999999858e+01,7.839000000000000482e-03,1.325481044753185793e-04
2.080000000000000071e+01,7.721600000000000338e-03,1.270982297280336289e-04
2.119999999999999929e+01,7.301799999999999784e-03,1.155592488726021286e-04
2.160000000000000142e+01,7.263600000000000265e-03,1.917252200416000513e-04
2.200000000000000000e+01,7.256400000000000523e-03,1.390505663418887150e-04
2.239999999999999858e+01,6.980800000000000546e-03,9.232572772526613676e-05
2.280000000000000071e+01,6.843000000000000124e-03,9.795509175127144978e-05
2.319999999999999929e+01,6.661399999999999613e-03,1.749984571360558639e-04
2.360000000000000142e+01,6.456000000000000801e-03,3.328663395418644133e-05
2.400000000000000000e+01,6.488599999999999750e-03,8.815248153058418399e-05
2.439999999999999858e+01,6.129399999999999259e-03,1.272468467192801875e-04
2.480000000000000071e+01,5.950399999999999787e-03,5.895218401382598059e-05
2.519999999999999929e+01,5.953200000000000505e-03,2.126413412297805284e-04
2.560000000000000142e+01,5.848400000000000994e-03,2.647167542865391169e-04
2.600000000000000000e+01,5.810600000000000834e-03,2.262283359793816075e-04
2.639999999999999858e+01,5.643399999999999805e-03,1.518395864061806608e-04
2.680000000000000071e+01,5.519600000000000374e-03,2.099129819711016329e-04
2.719999999999999929e+01,5.164799999999999773e-03,1.887462317504643849e-04
2.760000000000000142e+01,5.192600000000000340e-03,1.841620482075499883e-04
2.800000000000000000e+01,5.108800000000000147e-03,1.673312284064155811e-04
2.839999999999999858e+01,4.958999999999999866e-03,1.189504098353595424e-04
2.880000000000000071e+01,4.876199999999999805e-03,1.378489753317013744e-04
2.919999999999999929e+01,4.802400000000000072e-03,1.410129781261285249e-04
2.960000000000000142e+01,4.626199999999999583e-03,7.745669758000259025e-05
3.000000000000000000e+01,4.427800000000000832e-03,1.022200567403481856e-04
3.039999999999999858e+01,4.561199999999999630e-03,1.009546432810300024e-04
3.080000000000000071e+01,4.455599999999999665e-03,1.527463911193975750e-04
3.119999999999999929e+01,4.353999999999999364e-03,1.204238348500826828e-04
3.160000000000000142e+01,4.291999999999999808e-03,1.163765440284252669e-04
3.200000000000000000e+01,4.222000000000000058e-03,1.563633588792464908e-04
3.239999999999999858e+01,4.129200000000000405e-03,1.575780441559039102e-04
3.279999999999999716e+01,4.007799999999999731e-03,1.193173918588568962e-04
3.320000000000000284e+01,3.828199999999999485e-03,8.415901615394511654e-05
3.360000000000000142e+01,3.697399999999999992e-03,9.386671401513957413e-05
3.400000000000000000e+01,3.556399999999999926e-03,1.011699560146193228e-04
3.439999999999999858e+01,3.661399999999999984e-03,1.056648475132576360e-04
3.479999999999999716e+01,3.639799999999999893e-03,5.671719316045178478e-05
3.520000000000000284e+01,3.514599999999999669e-03,4.730602498625306772e-05
3.560000000000000142e+01,3.719799999999999669e-03,1.306573381023814118e-04
3.600000000000000000e+01,3.547200000000000353e-03,1.412930996191958039e-04
3.639999999999999858e+01,3.348600000000000187e-03,8.347850022610613172e-05
3.679999999999999716e+01,3.428200000000000171e-03,4.834294157371885400e-05
3.720000000000000284e+01,3.236200000000000274e-03,8.702493895430208552e-05
3.760000000000000142e+01,3.165799999999999864e-03,5.655652040216049728e-05
3.800000000000000000e+01,3.200600000000000060e-03,5.953872689267046325e-05
3.839999999999999858e+01,3.309600000000000215e-03,7.148118633598634297e-05
3.879999999999999716e+01,3.367799999999999787e-03,1.036269270025894502e-04
3.920000000000000284e+01,3.175599999999999777e-03,7.786436925834557877e-05
3.960000000000000142e+01,3.185800000000000350e-03,1.119653517834870275e-04
4.000000000000000000e+01,3.086599999999999674e-03,1.281755046801064742e-04
4.039999999999999858e+01,2.991800000000000188e-03,6.161931515361076237e-05
4.079999999999999716e+01,2.820800000000000043e-03,7.550258273728122321e-05
4.120000000000000284e+01,2.843599999999999947e-03,1.625480236730055753e-04
4.160000000000000142e+01,2.749000000000000575e-03,1.196072740262899085e-04
4.200000000000000000e+01,2.765399999999999889e-03,1.088432818321829858e-04
4.239999999999999858e+01,2.722800000000000047e-03,1.421514685115844560e-04
4.279999999999999716e+01,2.791399999999999437e-03,1.480647155807216279e-04
4.320000000000000284e+01,2.728799999999999976e-03,1.300882008485012339e-04
4.360000000000000142e+01,2.670199999999999744e-03,1.459867802234161426e-04
4.400000000000000000e+01,2.633999999999999623e-03,1.941713161102844140e-04
4.439999999999999858e+01,2.460200000000000060e-03,1.447506131247809484e-04
4.479999999999999716e+01,2.525799999999999920e-03,1.307327044010028803e-04
4.520000000000000284e+01,2.463799999999999931e-03,1.272424457482643754e-04
4.560000000000000142e+01,2.499000000000000353e-03,1.348751274327479599e-04
4.600000000000000000e+01,2.476200000000000016e-03,8.352987489515354986e-05
4.639999999999999858e+01,2.334799999999999723e-03,4.556028972691023943e-05
4.679999999999999716e+01,2.324600000000000017e-03,3.668323867926607672e-05
4.720000000000000284e+01,2.295399999999999958e-03,9.469878563107340095e-05
4.760000000000000142e+01,2.249399999999999924e-03,6.953171938043816250e-05
4.800000000000000000e+01,2.226800000000000133e-03,9.019501094849985098e-05
4.839999999999999858e+01,2.282600000000000080e-03,9.504346374159562542e-05
4.879999999999999716e+01,2.210600000000000065e-03,7.089894216418184765e-05
4.920000000000000284e+01,2.052600000000000344e-03,8.731070953783389896e-05
4.960000000000000142e+01,2.059199999999999746e-03,1.073244613310497954e-04
5.000000000000000000e+01,2.016999999999999696e-03,1.077255772785646481e-04
5.039999999999999858e+01,2.088199999999999692e-03,1.040780476373380324e-04
5.079999999999999716e+01,2.064999999999999995e-03,8.193900170248597393e-05
5.120000000000000284e+01,2.002599999999999780e-03,1.004378414742172787e-04
5.160000000000000142e+01,2.006399999999999764e-03,7.143010569780783195e-05
5.200000000000000000e+01,1.940799999999999904e-03,6.665313195942106528e-05
5.239999999999999858e+01,1.839199999999999819e-03,6.458126663359897246e-05
5.279999999999999716e+01,1.838999999999999923e-03,8.516337240856540892e-05
5.320000000000000284e+01,1.943999999999999981e-03,1.337187346634719127e-04
5.360000000000000142e+01,1.927200000000000007e-03,1.816682140606881571e-04
5.400000000000000000e+01,1.881199999999999973e-03,1.076844464163697257e-04
5.439999999999999858e+01,1.917599999999999773e-03,1.118966487433827994e-04
5.479999999999999716e+01,1.882400000000000002e-03,1.358306298299466659e-04
5.520000000000000284e+01,1.858999999999999975e-03,1.240012096715189377e-04
5.560000000000000142e+01,1.900800000000000016e-03,1.166350719123540662e-04
5.600000000000000000e+01,1.894199999999999964e-03,9.569294644852354835e-05
5.639999999999999858e+01,1.838599999999999913e-03,9.562353266848072392e-05
5.679999999999999716e+01,1.776799999999999820e-03,1.323553550106681769e-04
5.720000000000000284e+01,1.750399999999999829e-03,8.121736267572348344e-05
5.760000000000000142e+01,1.727599999999999926e-03,1.694711184833569461e-04
5.800000000000000000e+01,1.694999999999999892e-03,1.425829583084878868e-04
5.839999999999999858e+01,1.698199999999999970e-03,1.268733226490108106e-04
5.879999999999999716e+01,1.748000000000000205e-03,1.250815733831326716e-04
5.920000000000000284e+01,1.658799999999999771e-03,7.308652406565794657e-05
5.960000000000000142e+01,1.599000000000000161e-03,3.365560874505167660e-05
6.000000000000000000e+01,1.611999999999999935e-03,3.667151483099653439e-05
6.039999999999999858e+01,1.611599999999999925e-03,6.142523911227371167e-05
6.079999999999999716e+01,1.581799999999999960e-03,7.538527707715876732e-05
6.120000000000000284e+01,1.648199999999999622e-03,4.614260504132810766e-05
6.160000000000000142e+01,1.650400000000000218e-03,1.009993069283150795e-04
6.200000000000000000e+01,1.723200000000000036e-03,9.263228378918438922e-05
6.239999999999999858e+01,1.503999999999999695e-03,6.433350604467317460e-05
6.279999999999999716e+01,1.477599999999999704e-03,3.691693378383420206e-05
6.320000000000000284e+01,1.487000000000000040e-03,4.700744621865775969e-05
6.360000000000000142e+01,1.565599999999999891e-03,8.775169514032191251e-05
6.400000000000000000e+01,1.513800000000000041e-03,5.640691446977046472e-05
6.440000000000000568e+01,1.411399999999999938e-03,1.242355021722856532e-04
6.479999999999999716e+01,1.454200000000000111e-03,9.988363229278356657e-05
6.520000000000000284e+01,1.441599999999999913e-03,5.941935711533743189e-05
6.559999999999999432e+01,1.481000000000000111e-03,5.478503445285034043e-05
6.600000000000000000e+01,1.536999999999999738e-03,5.788091222501594524e-05
6.640000000000000568e+01,1.543199999999999997e-03,5.055828319870049912e-05
6.679999999999999716e+01,1.408999999999999879e-03,1.098799344739520724e-04
6.720000000000000284e+01,1.356199999999999897e-03,4.424748580428044842e-05
6.759999999999999432e+01,1.333200000000000097e-03,4.082817654512629918e-05
6.800000000000000000e+01,1.306600000000000209e-03,4.420135744521880186e-05
6.840000000000000568e+01,1.340199999999999725e-03,6.059570941906694639e-05
6.879999999999999716e+01,1.376000000000000053e-03,6.132291578194893765e-05
6.920000000000000284e+01,1.434999999999999861e-03,5.535973265831400534e-05
6.959999999999999432e+01,1.323200000000000071e-03,5.321973318234505667e-05
7.000000000000000000e+01,1.342799999999999896e-03,7.453146986340737287e-05
7.040000000000000568e+01,1.437999999999999825e-03,6.257635336131371216e-05
7.079999999999999716e+01,1.448199999999999965e-03,4.095045787289807007e-05
7.120000000000000284e+01,1.504200000000000025e-03,7.210644908744293677e-05
7.159999999999999432e+01,1.458200000000000208e-03,5.488569941250631852e-05
7.200000000000000000e+01,1.408799999999999983e-03,5.850247857997130336e-05
7.240000000000000568e+01,1.386000000000000079e-03,4.009488745463691037e-05
7.279999999999999716e+01,1.339799999999999932e-03,6.895099709213784128e-05
7.320000000000000284e+01,1.286799999999999836e-03,1.158125209120326472e-04
7.359999999999999432e+01,1.286999999999999950e-03,5.432494822823121520e-05
7.400000000000000000e+01,1.234800000000000090e-03,6.130367036320090934e-05
7.440000000000000568e+01,1.329599999999999792e-03,6.553441843794753977e-05
7.479999999999999716e+01,1.319800000000000096e-03,3.507335170752860759e-05
7.520000000000000284e+01,1.231200000000000003e-03,4.900346926494080759e-05
7.559999999999999432e+01,1.247999999999999977e-03,3.999249929674313710e-05
7.600000000000000000e+01,1.139599999999999945e-03,2.095853048283683170e-05
7.640000000000000568e+01,1.277599999999999830e-03,4.509501081050983025e-05
7.679999999999999716e+01,1.294000000000000011e-03,6.879462188281871139e-05
7.720000000000000284e+01,1.241799999999999935e-03,6.573233603029790702e-05
7.759999999999999432e+01,1.281400000000000247e-03,8.867728006654240433e-05
7.800000000000000000e+01,1.093999999999999920e-03,7.166589146867565212e-05
7.840000000000000568e+01,1.110199999999999989e-03,6.234773452179317901e-05
7.879999999999999716e+01,1.185599999999999979e-03,7.867057899875911145e-05
7.920000000000000284e+01,1.237600000000000158e-03,5.612806784488488381e-05
7.959999999999999432e+01,1.142999999999999919e-03,5.851239184993209142e-05
8.000000000000000000e+01,1.152400000000000039e-03,8.461595594212713517e-05
8.040000000000000568e+01,1.115600000000000012e-03,5.895133586272666013e-05
8.079999999999999716e+01,1.058399999999999922e-03,5.959748316833522833e-05
8.120000000000000284e+01,1.064999999999999974e-03,7.385729483267037068e-05
8.159999999999999432e+01,1.067799999999999826e-03,4.240212258837991580e-05
8.200000000000000000e+01,1.067800000000000259e-03,4.903101059533651000e-05
8.240000000000000568e+01,9.836000000000000559e-04,5.853170081246572310e-05
8.279999999999999716e+01,1.068200000000000052e-03,4.556138716062098582e-05
8.320000000000000284e+01,1.114800000000000209e-03,9.497125881023165100e-05
8.359999999999999432e+01,1.094799999999999940e-03,9.261716903468816765e-05
8.400000000000000000e+01,1.112200000000000038e-03,3.736094217227397716e-05
8.440000000000000568e+01,1.094800000000000157e-03,5.626668641389860040e-05
8.479999999999999716e+01,1.057800000000000016e-03,3.816464332336933705e-05
8.520000000000000284e+01,1.104999999999999863e-03,4.099634130016969064e-05
8.559999999999999432e+01,1.084799999999999914e-03,5.366414072730505986e-05
8.600000000000000000e+01,1.044199999999999903e-03,5.892995842523562357e-05
8.640000000000000568e+01,1.035199999999999792e-03,6.472047589441843999e-05
8.679999999999999716e+01,1.044400000000000016e-03,7.391522170703406522e-05
8.720000000000000284e+01,9.431999999999999412e-04,6.655478945951220774e-05
8.759999999999999432e+01,9.330000000000001270e-04,6.682514496804327787e-05
8.800000000000000000e+01,9.032000000000000531e-04,5.055729423139652783e-05
8.840000000000000568e+01,9.365999999999998892e-04,6.822067135406978346e-05
8.879999999999999716e+01,1.044600000000000129e-03,1.868314748643815955e-05
8.920000000000000284e+01,1.024399999999999963e-03,4.015793819408560703e-05
8.959999999999999432e+01,1.058000000000000130e-03,1.782694589659150004e-05
9.000000000000000000e+01,8.825999999999998777e-04,3.500657081177758182e-05
9.040000000000000568e+01,9.337999999999999296e-04,4.299116188241484428e-05
9.079999999999999716e+01,9.803999999999999781e-04,5.028379460621484453e-05
9.120000000000000284e+01,9.472000000000001469e-04,3.738769851167627505e-05
9.159999999999999432e+01,1.031399999999999808e-03,4.193518808828690657e-05
9.200000000000000000e+01,1.051400000000000078e-03,4.039752467664323686e-05
9.240000000000000568e+01,9.909999999999999105e-04,5.115564484981104825e-05
9.279999999999999716e+01,8.897999999999999443e-04,3.885665966086122240e-05
9.320000000000000284e+01,9.910000000000001273e-04,2.741897153432273888e-05
9.359999999999999432e+01,9.602000000000001376e-04,4.279065318501225828e-05
9.400000000000000000e+01,1.027999999999999834e-03,9.183082271220267833e-05
9.440000000000000568e+01,9.806000000000000914e-04,5.464576836315873231e-05
9.479999999999999716e+01,9.469999999999999252e-04,4.093531482717580397e-05
9.520000000000000284e+01,9.710000000000001833e-04,3.172538415843060346e-05
9.559999999999999432e+01,9.469999999999999252e-04,5.127084941757842487e-05
9.600000000000000000e+01,9.435999999999999509e-04,1.621604144049958323e-05
9.640000000000000568e+01,9.070000000000000371e-04,4.339700450491946608e-05
9.679999999999999716e+01,8.628000000000000469e-04,5.407624247301211608e-05
9.720000000000000284e+01,8.796000000000000216e-04,7.244556577182622746e-05
9.759999999999999432e+01,9.504000000000000078e-04,4.164204605924159741e-05
9.800000000000000000e+01,9.738000000000000345e-04,1.986303098723856184e-05
9.840000000000000568e+01,9.601999999999999208e-04,3.850506460194555626e-05
9.879999999999999716e+01,8.525999999999999074e-04,4.863907893864767817e-05
9.920000000000000284e+01,9.064000000000001309e-04,3.481177961552669314e-05
9.959999999999999432e+01,9.669999999999999776e-04,5.803447251418763537e-05
1.000000000000000000e+02,1.051599999999999974e-03,5.243720053549768515e-05
1.004000000000000057e+02,1.095400000000000280e-03,5.415865581788381671e-05
1.007999999999999972e+02,1.088599999999999898e-03,7.328819823136599443e-05
1.012000000000000028e+02,9.644000000000000229e-04,6.491502137410109510e-05
1.015999999999999943e+02,9.129999999999999661e-04,6.803308018897867094e-05
1.020000000000000000e+02,9.400000000000000803e-04,8.002874483584008656e-05
1.024000000000000057e+02,9.467999999999999203e-04,1.068131078098563609e-04
1.027999999999999972e+02,9.298000000000000492e-04,6.605104086992118467e-05
1.032000000000000028e+02,9.062000000000000176e-04,4.446841575770381285e-05
1.035999999999999943e+02,8.423999999999998763e-04,7.350823083165583397e-05
1.040000000000000000e+02,8.388000000000000057e-04,6.731300023026754397e-05
1.044000000000000057e+02,8.455999999999999541e-04,5.530515346692385447e-05
1.047999999999999972e+02,8.859999999999999603e-04,3.918928424965172335e-05
1.052000000000000028e+02,9.025999999999999301e-04,8.100654294561644817e-05
1.055999999999999943e+02,8.691999999999999857e-04,4.268418911025484685e-05
1.060000000000000000e+02,8.559999999999999901e-04,4.694358316106687494e-05
1.064000000000000057e+02,8.691999999999999857e-04,3.981632830887347482e-05
