timestep,H(t)_mean,H(t)_err
2.000000000000000111e-01,8.750935999999999160e-01,7.111275975519570089e-04
4.000000000000000222e-01,7.993419999999999970e-01,6.245067653756935285e-04
5.999999999999999778e-01,7.413946000000000147e-01,1.130980618755256630e-03
8.000000000000000444e-01,6.943465999999999250e-01,1.611037820785102704e-03
1.000000000000000000e+00,6.546739999999999782e-01,8.318978302652259901e-04
1.199999999999999956e+00,6.157823999999999520e-01,1.438099391558180819e-03
1.399999999999999911e+00,5.828155999999999892e-01,1.608958812400120009e-03
1.600000000000000089e+00,5.516242000000000090e-01,1.905665327385695339e-03
1.800000000000000044e+00,5.243849999999999900e-01,1.707679273165780501e-03
2.000000000000000000e+00,4.991827999999999821e-01,1.772610430974612752e-03
2.200000000000000178e+00,4.762556000000000012e-01,1.993150235180481383e-03
2.399999999999999911e+00,4.539894000000000429e-01,1.382020643840021091e-03
2.600000000000000089e+00,4.340495999999999799e-01,1.349393663835723751e-03
2.799999999999999822e+00,4.162355999999999834e-01,1.758415809756039283e-03
3.000000000000000000e+00,3.979971999999999954e-01,1.935418698886628422e-03
3.200000000000000178e+00,3.803747999999999574e-01,1.644323642109422976e-03
3.399999999999999911e+00,3.654857999999999718e-01,1.773329591474748440e-03
3.600000000000000089e+00,3.513994000000000284e-01,1.774985368953782431e-03
3.799999999999999822e+00,3.374247999999999692e-01,1.465069636570224317e-03
4.000000000000000000e+00,3.252876000000000101e-01,1.404295645510584938e-03
4.200000000000000178e+00,3.129774000000000167e-01,1.868373345988434079e-03
4.400000000000000355e+00,3.008315999999999768e-01,2.373862898315739090e-03
4.599999999999999645e+00,2.894324000000000341e-01,1.686944681962038606e-03
4.799999999999999822e+00,2.804810000000000358e-01,1.554354045898165239e-03
5.000000000000000000e+00,2.708657999999999899e-01,1.417363093917719781e-03
5.200000000000000178e+00,2.611970000000000125e-01,1.424578112986442813e-03
5.400000000000000355e+00,2.524414000000000380e-01,9.304041917360368966e-04
5.599999999999999645e+00,2.443116000000000176e-01,1.214108751306899707e-03
5.799999999999999822e+00,2.372685999999999962e-01,1.362617503190091152e-03
6.000000000000000000e+00,2.302723999999999882e-01,1.510658022187684208e-03
6.200000000000000178e+00,2.228812000000000015e-01,1.396765706910076815e-03
6.400000000000000355e+00,2.157431999999999961e-01,1.106999295392729161e-03
6.599999999999999645e+00,2.086916000000000049e-01,1.232262658689293891e-03
6.799999999999999822e+00,2.044172000000000211e-01,1.255892646686012238e-03
7.000000000000000000e+00,1.981860000000000288e-01,1.577843781874493966e-03
7.200000000000000178e+00,1.925936000000000037e-01,1.461226149505953122e-03
7.400000000000000355e+00,1.863858000000000181e-01,1.415284331857031164e-03
7.599999999999999645e+00,1.811965999999999855e-01,1.385639116076045618e-03
7.799999999999999822e+00,1.755491999999999886e-01,1.391821303185148111e-03
8.000000000000000000e+00,1.707317999999999891e-01,1.261441294710141789e-03
8.199999999999999289e+00,1.661252000000000284e-01,1.082196812044831881e-03
8.400000000000000355e+00,1.606814000000000020e-01,1.066459778894640912e-03
8.599999999999999645e+00,1.571073999999999804e-01,1.264560975200483160e-03
8.800000000000000711e+00,1.539998000000000200e-01,1.092934828798130219e-03
9.000000000000000000e+00,1.495121999999999840e-01,7.465558518958896432e-04
9.199999999999999289e+00,1.459784000000000082e-01,1.075953047302711813e-03
9.400000000000000355e+00,1.430453999999999892e-01,8.927068723830884579e-04
9.599999999999999645e+00,1.398439999999999961e-01,7.015363853714221649e-04
9.800000000000000711e+00,1.357910000000000228e-01,8.223572216500553119e-04
1.000000000000000000e+01,1.330159999999999676e-01,5.639506184055494446e-04
1.019999999999999929e+01,1.305554000000000159e-01,4.672303072361668570e-04
1.040000000000000036e+01,1.271947999999999968e-01,2.945130557377700214e-04
1.059999999999999964e+01,1.243635999999999908e-01,4.034587463421750045e-04
1.080000000000000071e+01,1.213742000000000154e-01,6.785099409736011127e-04
1.100000000000000000e+01,1.191903999999999880e-01,9.985177314399580617e-04
1.119999999999999929e+01,1.166343999999999992e-01,7.191610111790002792e-04
1.140000000000000036e+01,1.144813999999999971e-01,7.832984488686292037e-04
1.159999999999999964e+01,1.121778000000000219e-01,4.057956875078883204e-04
1.180000000000000071e+01,1.099122000000000154e-01,7.637378084133330299e-04
1.200000000000000000e+01,1.076030000000000042e-01,7.883656512050730113e-04
1.219999999999999929e+01,1.054569999999999952e-01,5.659838336913876724e-04
1.240000000000000036e+01,1.032804000000000083e-01,3.530762807099897772e-04
1.259999999999999964e+01,1.010955999999999938e-01,3.375626756618681072e-04
1.280000000000000071e+01,9.902079999999999216e-02,2.917494473002478950e-04
1.300000000000000000e+01,9.654460000000000819e-02,3.740713300962809473e-04
1.319999999999999929e+01,9.532219999999999582e-02,4.444296794769675126e-04
1.340000000000000036e+01,9.379959999999999687e-02,8.182832394715173216e-04
1.359999999999999964e+01,9.125039999999998153e-02,6.265413473985575023e-04
1.380000000000000071e+01,8.931920000000000137e-02,7.028868614506871568e-04
1.400000000000000000e+01,8.822260000000001212e-02,4.787134424684570243e-04
1.419999999999999929e+01,8.648039999999998506e-02,5.282901286225221912e-04
1.440000000000000036e+01,8.610340000000001048e-02,3.000784230830335145e-04
1.459999999999999964e+01,8.421059999999999657e-02,3.013915393636657381e-04
1.480000000000000071e+01,8.259419999999999262e-02,4.112448662293542050e-04
1.500000000000000000e+01,8.146540000000000725e-02,2.783333612774445041e-04
1.519999999999999929e+01,7.969079999999999220e-02,3.456639119144498369e-04
1.540000000000000036e+01,7.827839999999999798e-02,2.050791554497935465e-04
1.559999999999999964e+01,7.771120000000000805e-02,4.105298283925290243e-04
1.580000000000000071e+01,7.624480000000000146e-02,4.478309279181160699e-04
1.600000000000000000e+01,7.543960000000000943e-02,2.585116244968504507e-04
1.619999999999999929e+01,7.470620000000000038e-02,4.905011111098523963e-04
1.639999999999999858e+01,7.349999999999999589e-02,3.660547773216456789e-04
1.660000000000000142e+01,7.236499999999999877e-02,4.577094056276323855e-04
1.680000000000000071e+01,7.074740000000000195e-02,3.366028223292245988e-04
1.700000000000000000e+01,6.944600000000000772e-02,6.259920127285964085e-04
1.719999999999999929e+01,6.829499999999999460e-02,6.086137527200630734e-04
1.739999999999999858e+01,6.721379999999999022e-02,6.421435509292288540e-04
1.760000000000000142e+01,6.647220000000000906e-02,6.184151841602863933e-04
1.780000000000000071e+01,6.544060000000000155e-02,6.458106998184533210e-04
1.800000000000000000e+01,6.402940000000000020e-02,6.458783631613624308e-04
1.819999999999999929e+01,6.353999999999999926e-02,5.339725648383073821e-04
1.839999999999999858e+01,6.268759999999999610e-02,5.248511789069367980e-04
1.860000000000000142e+01,6.195479999999999737e-02,6.237221657116260101e-04
1.880000000000000071e+01,6.092119999999999480e-02,5.903685628486659729e-04
1.900000000000000000e+01,5.975299999999998668e-02,5.018811612324167691e-04
1.919999999999999929e+01,5.903420000000000195e-02,6.266702003446471920e-04
1.939999999999999858e+01,5.849879999999999663e-02,4.391415944772263319e-04
1.960000000000000142e+01,5.740340000000000720e-02,3.672739576937088875e-04
1.980000000000000071e+01,5.678800000000000514e-02,4.099828045174578944e-04
2.000000000000000000e+01,5.638600000000000556e-02,5.036499776630586935e-04
2.019999999999999929e+01,5.595200000000000173e-02,5.162080007128906720e-04
2.039999999999999858e+01,5.503620000000000040e-02,3.782078000253305213e-04
2.060000000000000142e+01,5.377400000000000235e-02,1.888721789994492455e-04
2.080000000000000071e+01,5.311880000000000074e-02,2.553427892069794810e-04
2.100000000000000000e+01,5.228139999999999871e-02,3.488284105401970271e-04
2.119999999999999929e+01,5.160400000000000403e-02,1.584834376204650736e-04
2.139999999999999858e+01,5.072799999999999532e-02,3.113212167520870190e-04
2.160000000000000142e+01,4.989239999999999647e-02,3.325282845112577184e-04
2.180000000000000071e+01,4.893060000000000465e-02,3.328625241747704957e-04
2.200000000000000000e+01,4.864539999999999836e-02,4.801164025525470102e-04
2.219999999999999929e+01,4.783319999999999933e-02,5.035761511430019138e-04
2.239999999999999858e+01,4.739120000000000138e-02,3.879687358538051181e-04
2.260000000000000142e+01,4.633420000000000594e-02,3.916100611577793883e-04
2.280000000000000071e+01,4.599620000000000097e-02,2.099431827900107809e-04
2.300000000000000000e+01,4.542899999999999716e-02,3.200114060467219987e-04
2.319999999999999929e+01,4.493219999999999853e-02,3.523274613197213451e-04
2.339999999999999858e+01,4.375619999999999510e-02,1.499934665243789547e-04
2.360000000000000142e+01,4.337919999999999277e-02,2.744803089476542581e-04
2.380000000000000071e+01,4.284240000000000270e-02,4.379359085528390563e-04
2.400000000000000000e+01,4.225779999999999814e-02,2.684416882676761017e-04
2.419999999999999929e+01,4.146139999999999548e-02,3.216914049209275515e-04
2.439999999999999858e+01,4.110699999999999771e-02,3.159503125492999810e-04
2.460000000000000142e+01,4.066460000000000213e-02,2.915855963520831880e-04
2.480000000000000071e+01,4.068919999999999482e-02,2.449925304983803878e-04
2.500000000000000000e+01,4.031900000000000067e-02,2.230235413583055235e-04
2.519999999999999929e+01,3.983620000000000216e-02,3.950853578658663785e-04
2.539999999999999858e+01,3.939420000000000421e-02,5.293370759733352117e-04
2.560000000000000142e+01,3.909459999999999325e-02,6.287881678276084976e-04
2.580000000000000071e+01,3.880299999999999722e-02,4.730245236771566547e-04
2.600000000000000000e+01,3.818619999999999653e-02,6.822749738924910323e-04
2.619999999999999929e+01,3.759559999999999985e-02,8.132557777230965679e-04
2.639999999999999858e+01,3.736799999999999844e-02,6.514742512179581965e-04
2.660000000000000142e+01,3.681480000000000169e-02,5.400121665296073572e-04
2.680000000000000071e+01,3.642719999999999986e-02,7.635160378145305861e-04
2.700000000000000000e+01,3.621439999999999382e-02,8.192036743081662804e-04
2.719999999999999929e+01,3.585180000000000311e-02,8.500362580502071564e-04
2.739999999999999858e+01,3.497659999999999658e-02,7.897490487490309253e-04
2.760000000000000142e+01,3.465359999999999968e-02,6.033813553632562388e-04
2.780000000000000071e+01,3.447940000000000726e-02,7.590302102024664918e-04
2.800000000000000000e+01,3.387199999999999933e-02,8.001612962397022279e-04
2.819999999999999929e+01,3.370700000000000085e-02,7.469066206695447116e-04
2.839999999999999858e+01,3.336080000000000295e-02,8.724975300824630228e-04
2.860000000000000142e+01,3.313199999999999479e-02,6.488324899386596406e-04
2.880000000000000071e+01,3.254020000000000523e-02,7.687248142215783245e-04
2.900000000000000000e+01,3.246779999999999805e-02,8.674791870702146723e-04
2.919999999999999929e+01,3.227900000000000214e-02,6.663364765642058613e-04
2.939999999999999858e+01,3.177519999999999650e-02,5.048232760085455016e-04
2.960000000000000142e+01,3.149900000000000616e-02,6.214071129300021909e-04
2.980000000000000071e+01,3.123880000000000060e-02,5.866551286744199145e-04
3.000000000000000000e+01,3.075779999999999487e-02,7.358332283880635342e-04
3.019999999999999929e+01,3.060779999999999751e-02,7.174240308213825903e-04
3.039999999999999858e+01,3.041139999999999816e-02,5.816516655181174812e-04
3.060000000000000142e+01,3.016000000000000278e-02,5.628636602233266740e-04
3.080000000000000071e+01,3.009660000000000113e-02,6.150139510612750646e-04
3.100000000000000000e+01,2.942720000000000405e-02,5.884796852908349713e-04
3.119999999999999929e+01,2.933299999999999796e-02,7.545952557497294941e-04
3.139999999999999858e+01,2.914340000000000333e-02,5.303328765973309685e-04
3.160000000000000142e+01,2.880400000000000321e-02,4.988664149850138450e-04
3.180000000000000071e+01,2.863840000000000136e-02,4.577800345143942431e-04
3.200000000000000000e+01,2.823700000000000168e-02,7.552673036746661468e-04
3.220000000000000284e+01,2.784199999999999869e-02,6.087431313780874683e-04
3.239999999999999858e+01,2.770740000000000008e-02,6.778756228099665606e-04
3.260000000000000142e+01,2.754960000000000048e-02,5.234973352367704646e-04
3.279999999999999716e+01,2.689420000000000005e-02,4.645617719959316987e-04
3.300000000000000000e+01,2.718680000000000055e-02,5.132020459818918343e-04
3.320000000000000284e+01,2.673019999999999910e-02,3.526780968532064312e-04
3.339999999999999858e+01,2.636740000000000264e-02,4.386591615366079722e-04
3.360000000000000142e+01,2.618459999999999538e-02,3.680030706393633841e-04
3.379999999999999716e+01,2.574380000000000071e-02,2.635403953856031516e-04
3.400000000000000000e+01,2.535620000000000235e-02,3.244802613411174584e-04
3.420000000000000284e+01,2.532459999999999573e-02,3.117936176383347786e-04
3.439999999999999858e+01,2.502440000000000220e-02,3.799436273975391855e-04
3.460000000000000142e+01,2.504819999999999963e-02,3.223636766138522841e-04
3.479999999999999716e+01,2.478799999999999754e-02,2.507377115632990683e-04
3.500000000000000000e+01,2.456739999999999965e-02,2.306914822874916993e-04
3.520000000000000284e+01,2.467000000000000096e-02,2.920364703251975913e-04
3.539999999999999858e+01,2.426060000000000022e-02,3.358202793161842972e-04
3.560000000000000142e+01,2.419840000000000185e-02,3.715336593096246450e-04
3.579999999999999716e+01,2.389699999999999810e-02,3.455029667021688620e-04
3.600000000000000000e+01,2.370779999999999763e-02,3.924673744402203341e-04
3.620000000000000284e+01,2.352579999999999949e-02,4.030280883511715303e-04
3.639999999999999858e+01,2.331280000000000158e-02,3.613634458547239792e-04
3.660000000000000142e+01,2.302120000000000208e-02,3.467176661204329768e-04
3.679999999999999716e+01,2.324219999999999758e-02,2.688894568405385634e-04
3.700000000000000000e+01,2.293440000000000062e-02,3.346300345157319470e-04
3.720000000000000284e+01,2.294260000000000049e-02,2.490629639267951897e-04
3.739999999999999858e+01,2.276060000000000236e-02,2.940931145062735948e-04
3.760000000000000142e+01,2.239060000000000009e-02,1.589794326320229903e-04
3.779999999999999716e+01,2.260359999999999800e-02,2.890734508736486803e-04
3.800000000000000000e+01,2.242240000000000205e-02,2.892512057018952138e-04
3.820000000000000284e+01,2.186880000000000074e-02,4.393652694512846274e-04
3.839999999999999858e+01,2.233440000000000078e-02,4.141763634009067380e-04
3.860000000000000142e+01,2.206699999999999634e-02,3.318725659044447613e-04
3.879999999999999716e+01,2.208260000000000084e-02,2.828208973891431716e-04
3.900000000000000000e+01,2.186859999999999846e-02,3.824883789084318670e-04
3.920000000000000284e+01,2.160859999999999864e-02,4.036244046139925352e-04
3.939999999999999858e+01,2.172639999999999988e-02,4.558070425081211228e-04
3.960000000000000142e+01,2.141819999999999835e-02,5.820603405146236803e-04
3.979999999999999716e+01,2.123780000000000112e-02,4.369152549408181988e-04
4.000000000000000000e+01,2.109540000000000026e-02,4.548825782550919078e-04
4.020000000000000284e+01,2.100080000000000349e-02,4.916042514055381837e-04
4.039999999999999858e+01,2.125319999999999987e-02,5.764350266942493833e-04
4.060000000000000142e+01,2.093839999999999937e-02,5.453598445063588670e-04
4.079999999999999716e+01,2.063119999999999885e-02,5.024332194431416557e-04
4.100000000000000000e+01,2.047279999999999933e-02,4.834268714086966279e-04
4.120000000000000284e+01,2.036260000000000153e-02,4.109268304698537357e-04
4.139999999999999858e+01,1.977840000000000154e-02,5.007398126772023795e-04
4.160000000000000142e+01,1.945679999999999979e-02,2.686088978421974946e-04
4.179999999999999716e+01,1.918719999999999801e-02,4.318002315886365931e-04
4.200000000000000000e+01,1.896620000000000250e-02,5.968359406067967566e-04
4.220000000000000284e+01,1.918800000000000019e-02,4.544336035110081132e-04
4.239999999999999858e+01,1.905380000000000268e-02,3.317769431410206747e-04
4.260000000000000142e+01,1.880240000000000036e-02,3.709782473407302519e-04
4.279999999999999716e+01,1.872300000000000006e-02,3.055632504081603139e-04
4.300000000000000000e+01,1.855739999999999820e-02,3.150784981556183670e-04
4.320000000000000284e+01,1.822620000000000143e-02,4.838827750602412879e-04
4.339999999999999858e+01,1.824119999999999908e-02,5.015718692271328976e-04
4.360000000000000142e+01,1.812319999999999903e-02,3.911105214642020202e-04
4.379999999999999716e+01,1.781519999999999979e-02,4.660689219418087952e-04
4.400000000000000000e+01,1.787120000000000028e-02,3.623428486944371371e-04
4.420000000000000284e+01,1.786259999999999931e-02,3.276376962438846290e-04
4.439999999999999858e+01,1.754019999999999885e-02,3.756827651090746873e-04
4.460000000000000142e+01,1.736560000000000187e-02,4.992159452581621188e-04
4.479999999999999716e+01,1.694680000000000145e-02,5.729892145581796936e-04
4.500000000000000000e+01,1.701820000000000069e-02,5.388230136139324786e-04
4.520000000000000284e+01,1.665619999999999948e-02,5.084942870868853658e-04
4.539999999999999858e+01,1.648240000000000122e-02,4.415228872889834623e-04
4.560000000000000142e+01,1.629360000000000183e-02,5.402503678851128211e-04
4.579999999999999716e+01,1.590000000000000094e-02,4.240352579680138276e-04
4.600000000000000000e+01,1.567059999999999981e-02,3.991609449833485911e-04
4.620000000000000284e+01,1.575000000000000011e-02,2.917534918385727006e-04
4.639999999999999858e+01,1.564739999999999881e-02,2.973841959486079635e-04
4.660000000000000142e+01,1.554460000000000043e-02,3.655194386075796397e-04
4.679999999999999716e+01,1.550499999999999969e-02,2.865855893097209303e-04
4.700000000000000000e+01,1.546540000000000067e-02,3.563257779055562695e-04
4.720000000000000284e+01,1.508660000000000036e-02,4.021433326564049604e-04
4.739999999999999858e+01,1.485720000000000096e-02,4.617187888747867970e-04
4.760000000000000142e+01,1.481760000000000022e-02,4.790783443237649989e-04
4.779999999999999716e+01,1.484080000000000121e-02,4.700165316241547669e-04
4.800000000000000000e+01,1.479480000000000031e-02,2.566665930735823357e-04
4.820000000000000284e+01,1.488940000000000055e-02,3.124784152545578299e-04
4.839999999999999858e+01,1.492060000000000088e-02,3.405696110929452738e-04
4.860000000000000142e+01,1.501539999999999819e-02,2.722117925439673704e-04
4.879999999999999716e+01,1.481800000000000131e-02,2.855277569694406807e-04
4.900000000000000000e+01,1.478679999999999925e-02,2.859895802297697780e-04
4.920000000000000284e+01,1.464380000000000195e-02,4.553988801040249022e-04
4.939999999999999858e+01,1.460440000000000002e-02,4.643744825030762672e-04
4.960000000000000142e+01,1.456520000000000037e-02,4.786505405825839657e-04
4.979999999999999716e+01,1.432079999999999985e-02,5.025703333862831333e-04
5.000000000000000000e+01,1.424259999999999936e-02,3.594286577333532032e-04
5.020000000000000284e+01,1.436060000000000114e-02,4.027786737154785994e-04
5.039999999999999858e+01,1.404499999999999846e-02,4.569787741241380843e-04
5.060000000000000142e+01,1.406840000000000000e-02,5.467593254805993555e-04
5.079999999999999716e+01,1.385560000000000090e-02,4.611196807771274480e-04
5.100000000000000000e+01,1.376840000000000008e-02,5.609139506198790532e-04
5.120000000000000284e+01,1.372199999999999809e-02,4.058962921732593731e-04
5.139999999999999858e+01,1.346219999999999882e-02,4.234750760080217423e-04
5.160000000000000142e+01,1.335180000000000047e-02,5.051787208503539161e-04
5.179999999999999716e+01,1.330399999999999985e-02,5.250953246792431804e-04
5.200000000000000000e+01,1.313040000000000040e-02,4.683663736862415179e-04
5.220000000000000284e+01,1.313839999999999973e-02,4.374762393547791174e-04
5.239999999999999858e+01,1.290940000000000143e-02,5.124592276464538191e-04
5.260000000000000142e+01,1.316239999999999945e-02,4.378237773351281227e-04
5.279999999999999716e+01,1.317000000000000115e-02,4.602689431191288598e-04
5.300000000000000000e+01,1.330359999999999876e-02,4.626191306031344781e-04
5.320000000000000284e+01,1.318619999999999862e-02,3.677724024447727533e-04
