timestep,H(t)_mean,H(t)_err
2.000000000000000111e-01,8.747196000000000415e-01,5.283644196953494630e-04
4.000000000000000222e-01,8.002958000000000016e-01,6.560343283700981491e-04
5.999999999999999778e-01,7.416452000000000044e-01,8.179778358855480666e-04
8.000000000000000444e-01,6.938193999999999750e-01,7.020067378594063061e-04
1.000000000000000000e+00,6.526350000000000762e-01,8.275744679483630845e-04
1.199999999999999956e+00,6.152376000000000511e-01,7.171541396380560129e-04
1.399999999999999911e+00,5.818809999999999816e-01,1.109981531377880618e-03
1.600000000000000089e+00,5.516060000000000407e-01,1.046457978133851028e-03
1.800000000000000044e+00,5.236566000000000276e-01,1.134010167502919487e-03
2.000000000000000000e+00,4.980211999999999972e-01,9.698641863683731771e-04
2.200000000000000178e+00,4.743506000000000111e-01,1.278474153043382367e-03
2.399999999999999911e+00,4.523921999999999666e-01,7.846667700368144217e-04
2.600000000000000089e+00,4.316871999999999931e-01,6.579561839514864357e-04
2.799999999999999822e+00,4.135117999999999294e-01,2.742291742320658609e-04
3.000000000000000000e+00,3.955569999999999919e-01,5.381926235094621055e-04
3.200000000000000178e+00,3.790997999999999868e-01,5.514579222388639327e-04
3.399999999999999911e+00,3.634055999999999953e-01,5.197558657677689995e-04
3.600000000000000089e+00,3.490079999999999849e-01,3.835675950859249498e-04
3.799999999999999822e+00,3.351289999999999547e-01,7.423582019483596561e-04
4.000000000000000000e+00,3.231867999999999963e-01,7.392552603803408465e-04
4.200000000000000178e+00,3.107875999999999972e-01,4.200020952328634735e-04
4.400000000000000355e+00,2.994472000000000245e-01,3.472339845118908083e-04
4.599999999999999645e+00,2.888070000000000359e-01,9.558076689376326408e-04
4.799999999999999822e+00,2.785676000000000263e-01,9.167673423502832944e-04
5.000000000000000000e+00,2.695328000000000168e-01,8.092671623141528027e-04
5.200000000000000178e+00,2.602369999999999406e-01,6.642425008985843298e-04
5.400000000000000355e+00,2.513142000000000431e-01,6.794299375211589618e-04
5.599999999999999645e+00,2.432517999999999903e-01,9.089633325937879508e-04
5.799999999999999822e+00,2.358378000000000141e-01,7.822366905227606717e-04
6.000000000000000000e+00,2.287594000000000294e-01,6.226609510801179052e-04
6.200000000000000178e+00,2.212422000000000000e-01,6.301338270558072552e-04
6.400000000000000355e+00,2.147855999999999932e-01,5.572150033873796886e-04
6.599999999999999645e+00,2.080107999999999957e-01,4.572423208759225231e-04
6.799999999999999822e+00,2.019501999999999686e-01,5.561902012801001440e-04
7.000000000000000000e+00,1.965235999999999927e-01,5.586801052480708761e-04
7.200000000000000178e+00,1.909397999999999929e-01,5.878507803856336143e-04
7.400000000000000355e+00,1.856334000000000040e-01,9.004957856647634621e-04
7.599999999999999645e+00,1.804883999999999933e-01,7.836742052664468980e-04
7.799999999999999822e+00,1.758312000000000208e-01,7.801303993564165070e-04
8.000000000000000000e+00,1.707739999999999814e-01,6.311228881921470205e-04
8.199999999999999289e+00,1.659468000000000054e-01,5.758046022740695566e-04
8.400000000000000355e+00,1.613780000000000214e-01,4.929080035868775578e-04
8.599999999999999645e+00,1.576145999999999936e-01,6.747619283865968331e-04
8.800000000000000711e+00,1.536339999999999928e-01,6.635646162959577942e-04
9.000000000000000000e+00,1.501203999999999872e-01,4.837292217759827403e-04
9.199999999999999289e+00,1.467484000000000011e-01,3.793011468477289292e-04
9.400000000000000355e+00,1.431513999999999842e-01,4.156958744082027424e-04
9.599999999999999645e+00,1.399075999999999931e-01,4.619552575737176760e-04
9.800000000000000711e+00,1.361847999999999947e-01,4.262425835131910699e-04
1.000000000000000000e+01,1.333939999999999848e-01,2.608342385500822384e-04
1.019999999999999929e+01,1.304396000000000166e-01,2.114139541279114480e-04
1.040000000000000036e+01,1.279813999999999952e-01,5.341506903487066400e-04
1.059999999999999964e+01,1.247435999999999962e-01,4.542310645475484943e-04
1.080000000000000071e+01,1.218465999999999855e-01,3.846036401283798993e-04
1.100000000000000000e+01,1.197015999999999913e-01,4.324722650066710017e-04
1.119999999999999929e+01,1.167958000000000052e-01,4.323662105206639984e-04
1.140000000000000036e+01,1.144330000000000069e-01,5.386523925501507295e-04
1.159999999999999964e+01,1.123475999999999919e-01,7.247524818860575898e-04
1.180000000000000071e+01,1.096975999999999923e-01,7.593135452499175488e-04
1.200000000000000000e+01,1.071166000000000063e-01,7.209754919551701786e-04
1.219999999999999929e+01,1.049196000000000017e-01,6.582346542077534540e-04
1.240000000000000036e+01,1.030437999999999910e-01,6.840794836859225665e-04
1.259999999999999964e+01,1.014142000000000099e-01,7.472476430207058377e-04
1.280000000000000071e+01,9.934940000000000437e-02,7.863793995267157749e-04
1.300000000000000000e+01,9.731019999999999948e-02,7.862178705676946180e-04
1.319999999999999929e+01,9.510400000000000797e-02,8.978091668055067538e-04
1.340000000000000036e+01,9.333159999999998679e-02,7.432654707437994163e-04
1.359999999999999964e+01,9.174819999999998810e-02,7.520621915772665936e-04
1.380000000000000071e+01,8.986959999999999393e-02,5.816037826561990540e-04
1.400000000000000000e+01,8.820059999999999012e-02,4.781524443103879864e-04
1.419999999999999929e+01,8.662319999999999742e-02,4.912582213052522863e-04
1.440000000000000036e+01,8.501699999999999535e-02,5.154274924759051591e-04
1.459999999999999964e+01,8.384439999999999948e-02,2.393755626625234030e-04
1.480000000000000071e+01,8.239260000000001027e-02,2.230481114020023382e-04
1.500000000000000000e+01,8.132839999999999514e-02,3.146559390826760439e-04
1.519999999999999929e+01,8.015859999999999652e-02,3.861850074769852207e-04
1.540000000000000036e+01,7.854379999999998307e-02,1.800287199310161336e-04
1.559999999999999964e+01,7.758299999999999919e-02,2.699281385850676378e-04
1.580000000000000071e+01,7.594560000000000199e-02,5.007099559625319057e-04
1.600000000000000000e+01,7.463419999999999777e-02,3.675916756402400017e-04
1.619999999999999929e+01,7.361340000000000938e-02,3.859432082573806613e-04
1.639999999999999858e+01,7.211320000000001618e-02,6.681232221678885374e-04
1.660000000000000142e+01,7.072199999999999320e-02,6.868144582054145839e-04
1.680000000000000071e+01,6.945740000000000247e-02,7.490962955455053715e-04
1.700000000000000000e+01,6.861100000000000532e-02,7.248655737445380918e-04
1.719999999999999929e+01,6.708500000000000574e-02,7.841372328872024330e-04
1.739999999999999858e+01,6.604700000000000848e-02,8.217226417715403066e-04
1.760000000000000142e+01,6.524719999999999132e-02,6.546966778592970895e-04
1.780000000000000071e+01,6.404519999999999658e-02,5.558941805775629132e-04
1.800000000000000000e+01,6.293540000000000245e-02,4.636414131632328353e-04
1.819999999999999929e+01,6.183420000000000583e-02,4.403002838972515419e-04
1.839999999999999858e+01,6.102540000000000742e-02,6.590490573546103036e-04
1.860000000000000142e+01,6.038580000000000336e-02,6.592742524928451578e-04
1.880000000000000071e+01,5.968019999999999575e-02,6.663134697722985101e-04
1.900000000000000000e+01,5.900880000000000708e-02,4.741686830654260709e-04
1.919999999999999929e+01,5.822599999999999998e-02,3.075891740617667756e-04
1.939999999999999858e+01,5.755480000000000318e-02,2.141955648467079316e-04
1.960000000000000142e+01,5.631279999999999619e-02,3.345644033665264635e-04
1.980000000000000071e+01,5.549239999999999728e-02,2.568596114612021076e-04
2.000000000000000000e+01,5.486739999999999673e-02,3.666818239291380187e-04
2.019999999999999929e+01,5.402160000000000295e-02,4.024201287212153403e-04
2.039999999999999858e+01,5.329019999999999591e-02,4.782308438400847831e-04
2.060000000000000142e+01,5.244700000000000056e-02,3.337867582753995346e-04
2.080000000000000071e+01,5.191620000000000262e-02,3.316889205264481576e-04
2.100000000000000000e+01,5.113340000000000940e-02,3.180002515722274914e-04
2.119999999999999929e+01,5.035879999999999523e-02,2.967661368822255090e-04
2.139999999999999858e+01,4.967039999999999650e-02,3.346521477594314336e-04
2.160000000000000142e+01,4.903940000000000382e-02,3.363693802949371337e-04
2.180000000000000071e+01,4.855199999999999794e-02,2.316730454757313918e-04
2.200000000000000000e+01,4.782900000000000346e-02,2.123537143541405427e-04
2.219999999999999929e+01,4.740740000000000232e-02,1.577468224719596015e-04
2.239999999999999858e+01,4.657279999999999753e-02,1.799426019596247442e-04
2.260000000000000142e+01,4.620300000000000101e-02,3.126387691889797194e-04
2.280000000000000071e+01,4.554319999999999896e-02,2.248871717106158631e-04
2.300000000000000000e+01,4.506999999999999895e-02,3.401102762340472681e-04
2.319999999999999929e+01,4.434960000000000291e-02,2.473027698995709333e-04
2.339999999999999858e+01,4.387100000000000027e-02,2.750034545237569120e-04
2.360000000000000142e+01,4.358120000000000049e-02,1.627861787744895388e-04
2.380000000000000071e+01,4.306500000000000605e-02,2.132062381826576973e-04
2.400000000000000000e+01,4.256880000000000386e-02,2.381263110200133632e-04
2.419999999999999929e+01,4.225620000000000070e-02,2.584858603482981677e-04
2.439999999999999858e+01,4.180280000000000107e-02,2.666183414545975484e-04
2.460000000000000142e+01,4.162220000000000503e-02,3.764843157423688374e-04
2.480000000000000071e+01,4.124979999999999619e-02,3.394045373886449952e-04
2.500000000000000000e+01,4.039500000000000035e-02,4.123168684397957441e-04
2.519999999999999929e+01,4.004800000000000026e-02,3.487288344831830471e-04
2.539999999999999858e+01,3.960620000000000113e-02,3.037901249217950933e-04
2.560000000000000142e+01,3.929080000000000072e-02,2.757116972491373231e-04
2.580000000000000071e+01,3.885759999999999909e-02,2.507184875512773257e-04
2.600000000000000000e+01,3.834980000000000333e-02,2.827030951369302689e-04
2.619999999999999929e+01,3.782159999999999689e-02,2.285744080162961482e-04
2.639999999999999858e+01,3.751800000000000274e-02,4.227333675024957265e-04
2.660000000000000142e+01,3.709359999999999741e-02,3.450650083679892210e-04
2.680000000000000071e+01,3.655700000000000616e-02,2.441491347516918297e-04
2.700000000000000000e+01,3.632719999999999699e-02,1.992421642122971898e-04
2.719999999999999929e+01,3.587419999999999498e-02,1.855918640458144222e-04
2.739999999999999858e+01,3.533499999999999835e-02,3.299707562800072201e-04
2.760000000000000142e+01,3.491079999999999878e-02,4.003848648488101281e-04
2.780000000000000071e+01,3.437420000000000059e-02,4.368396044316494894e-04
2.800000000000000000e+01,3.410720000000000418e-02,4.880710399112001279e-04
2.819999999999999929e+01,3.407300000000000606e-02,3.769380585719620609e-04
2.839999999999999858e+01,3.352540000000000381e-02,2.602471133365359202e-04
2.860000000000000142e+01,3.304340000000000055e-02,2.620768207987879080e-04
2.880000000000000071e+01,3.258719999999999672e-02,2.834505953424680102e-04
2.900000000000000000e+01,3.208239999999999703e-02,3.169423606903945599e-04
2.919999999999999929e+01,3.199640000000000123e-02,3.090686978650537386e-04
2.939999999999999858e+01,3.193059999999999649e-02,2.459972764076874519e-04
2.960000000000000142e+01,3.164080000000000364e-02,2.257034337355108089e-04
2.980000000000000071e+01,3.110459999999999961e-02,2.463421604192019367e-04
3.000000000000000000e+01,3.086920000000000289e-02,2.382719874429225636e-04
3.019999999999999929e+01,3.072019999999999612e-02,2.327039750412529626e-04
3.039999999999999858e+01,3.041919999999999694e-02,1.425883585710980769e-04
3.060000000000000142e+01,2.996300000000000005e-02,2.232429170208986304e-04
3.080000000000000071e+01,2.962440000000000212e-02,1.593425869000501046e-04
3.100000000000000000e+01,2.936059999999999712e-02,2.525180389595957191e-04
3.119999999999999929e+01,2.954680000000000153e-02,2.869709741419851747e-04
3.139999999999999858e+01,2.900240000000000110e-02,1.620754762448656694e-04
3.160000000000000142e+01,2.862939999999999929e-02,1.737298477521925723e-04
3.180000000000000071e+01,2.855200000000000099e-02,1.875123995900003873e-04
3.200000000000000000e+01,2.836280000000000051e-02,1.304976628143201200e-04
3.220000000000000284e+01,2.796099999999999627e-02,1.102088925631683263e-04
3.239999999999999858e+01,2.784940000000000332e-02,1.416734272896648698e-04
3.260000000000000142e+01,2.753680000000000017e-02,1.967867881744095370e-04
3.279999999999999716e+01,2.737619999999999984e-02,1.565430931085753290e-04
3.300000000000000000e+01,2.699199999999999863e-02,6.642364036997664746e-05
3.320000000000000284e+01,2.683680000000000093e-02,1.241742324316926340e-04
3.339999999999999858e+01,2.665340000000000070e-02,1.542700878329947821e-04
3.360000000000000142e+01,2.645839999999999997e-02,1.807538657954511701e-04
3.379999999999999716e+01,2.625459999999999947e-02,1.832235246904718605e-04
3.400000000000000000e+01,2.627200000000000021e-02,1.469625802713059337e-04
3.420000000000000284e+01,2.593079999999999691e-02,1.608674609733119613e-04
3.439999999999999858e+01,2.569259999999999947e-02,1.358361513000126578e-04
3.460000000000000142e+01,2.551760000000000139e-02,1.677815842099487399e-04
3.479999999999999716e+01,2.515060000000000212e-02,1.211080509297381489e-04
3.500000000000000000e+01,2.504739999999999744e-02,1.310483117022113878e-04
3.520000000000000284e+01,2.473760000000000195e-02,1.369239204814120972e-04
3.539999999999999858e+01,2.442459999999999770e-02,1.298955734426697484e-04
3.560000000000000142e+01,2.431300000000000128e-02,1.508333517495384429e-04
3.579999999999999716e+01,2.415840000000000001e-02,1.634238660661286409e-04
3.600000000000000000e+01,2.404919999999999974e-02,1.267601672450772835e-04
3.620000000000000284e+01,2.377399999999999652e-02,1.416086155571050068e-04
3.639999999999999858e+01,2.353000000000000230e-02,1.772565936714343984e-04
3.660000000000000142e+01,2.330919999999999867e-02,1.610799180531208362e-04
3.679999999999999716e+01,2.319719999999999768e-02,1.762351837744100598e-04
3.700000000000000000e+01,2.278720000000000051e-02,2.718106694005956517e-04
3.720000000000000284e+01,2.273800000000000127e-02,2.657254221936619968e-04
3.739999999999999858e+01,2.248580000000000023e-02,1.700803927558967323e-04
3.760000000000000142e+01,2.232540000000000219e-02,1.508942013465065476e-04
3.779999999999999716e+01,2.209040000000000309e-02,1.061040055794315015e-04
3.800000000000000000e+01,2.190659999999999830e-02,1.172636346016961352e-04
3.820000000000000284e+01,2.181479999999999878e-02,2.002491947549349166e-04
3.839999999999999858e+01,2.159660000000000052e-02,2.056065660430132932e-04
3.860000000000000142e+01,2.154500000000000165e-02,1.929940413587944977e-04
3.879999999999999716e+01,2.141320000000000029e-02,1.996625653446336022e-04
3.900000000000000000e+01,2.131279999999999980e-02,1.141925566751181184e-04
3.920000000000000284e+01,2.114380000000000079e-02,9.714339915815153371e-05
3.939999999999999858e+01,2.098320000000000046e-02,1.243488640880965760e-04
3.960000000000000142e+01,2.068800000000000153e-02,1.171038001091342679e-04
3.979999999999999716e+01,2.069640000000000021e-02,7.806830342719092372e-05
4.000000000000000000e+01,2.050400000000000139e-02,1.344079610737397047e-04
4.020000000000000284e+01,2.042379999999999890e-02,8.322223260643772961e-05
4.039999999999999858e+01,2.021419999999999814e-02,1.577927121257502105e-04
4.060000000000000142e+01,2.016000000000000084e-02,1.191255640070592860e-04
4.079999999999999716e+01,1.990480000000000027e-02,9.274340946935290438e-05
4.100000000000000000e+01,1.984119999999999981e-02,1.285905906355513592e-04
4.120000000000000284e+01,1.962960000000000052e-02,1.419875346641385593e-04
4.139999999999999858e+01,1.965799999999999839e-02,1.664722199047038770e-04
4.160000000000000142e+01,1.940560000000000201e-02,1.910310445974688193e-04
4.179999999999999716e+01,1.924500000000000169e-02,1.503552460009294992e-04
4.200000000000000000e+01,1.902999999999999831e-02,2.020868625121386992e-04
4.220000000000000284e+01,1.874620000000000106e-02,1.098678296864009191e-04
4.239999999999999858e+01,1.868859999999999966e-02,1.395351568601975586e-04
4.260000000000000142e+01,1.847640000000000046e-02,2.269578374941036512e-04
4.279999999999999716e+01,1.837040000000000201e-02,1.959881629078651707e-04
4.300000000000000000e+01,1.814400000000000041e-02,1.698393358442033569e-04
4.320000000000000284e+01,1.805780000000000232e-02,1.655854462203727663e-04
4.339999999999999858e+01,1.797199999999999839e-02,9.974918546033319027e-05
4.360000000000000142e+01,1.803500000000000242e-02,1.686926198741362231e-04
4.379999999999999716e+01,1.786859999999999837e-02,1.525315049424218531e-04
4.400000000000000000e+01,1.759900000000000006e-02,1.370901163468761475e-04
4.420000000000000284e+01,1.740099999999999633e-02,1.596680932434530690e-04
4.439999999999999858e+01,1.732660000000000103e-02,1.975658371277792022e-04
4.460000000000000142e+01,1.723179999999999851e-02,1.688826219597509815e-04
4.479999999999999716e+01,1.708299999999999749e-02,2.581371728364594714e-04
4.500000000000000000e+01,1.694220000000000101e-02,1.882972118752691229e-04
4.520000000000000284e+01,1.700539999999999691e-02,1.835861105857412075e-04
4.539999999999999858e+01,1.668099999999999791e-02,1.726270546583009015e-04
4.560000000000000142e+01,1.666959999999999970e-02,1.668060550459724478e-04
4.579999999999999716e+01,1.641739999999999866e-02,1.943444365038523452e-04
4.600000000000000000e+01,1.608180000000000026e-02,1.683233198341811199e-04
4.620000000000000284e+01,1.598400000000000168e-02,1.078206844719506701e-04
4.639999999999999858e+01,1.604459999999999914e-02,1.584956150813010838e-04
4.660000000000000142e+01,1.605599999999999736e-02,2.202328313399253956e-04
4.679999999999999716e+01,1.606480000000000061e-02,2.412035240206909629e-04
4.700000000000000000e+01,1.584079999999999863e-02,1.996818469465867036e-04
4.720000000000000284e+01,1.575760000000000008e-02,1.682065991571079155e-04
4.739999999999999858e+01,1.557440000000000213e-02,2.324552860229253789e-04
4.760000000000000142e+01,1.545359999999999789e-02,2.062063529574197584e-04
4.779999999999999716e+01,1.539059999999999907e-02,2.572672929075903690e-04
4.800000000000000000e+01,1.539619999999999878e-02,2.678737389144367599e-04
4.820000000000000284e+01,1.523880000000000026e-02,3.116635044402858213e-04
4.839999999999999858e+01,1.516119999999999621e-02,2.954077520986882048e-04
4.860000000000000142e+01,1.507520000000000041e-02,2.568733929390117510e-04
4.879999999999999716e+01,1.499200000000000012e-02,2.740213495332069547e-04
4.900000000000000000e+01,1.484840000000000118e-02,2.073370685622809989e-04
4.920000000000000284e+01,1.471339999999999801e-02,1.455831721044709387e-04
4.939999999999999858e+01,1.464479999999999948e-02,1.618268828099955216e-04
4.960000000000000142e+01,1.453279999999999850e-02,2.029468896041521889e-04
4.979999999999999716e+01,1.430939999999999990e-02,2.218406184628954835e-04
5.000000000000000000e+01,1.426060000000000175e-02,2.149473423887813086e-04
5.020000000000000284e+01,1.411959999999999951e-02,2.218124432938784894e-04
5.039999999999999858e+01,1.405119999999999980e-02,2.121441491062151885e-04
5.060000000000000142e+01,1.385320000000000128e-02,2.223082094750438917e-04
5.079999999999999716e+01,1.388739999999999940e-02,2.278022387949688368e-04
5.100000000000000000e+01,1.370099999999999964e-02,2.093845744079537779e-04
5.120000000000000284e+01,1.359200000000000165e-02,1.561102174747059897e-04
5.139999999999999858e+01,1.352619999999999864e-02,1.336380933716131453e-04
5.160000000000000142e+01,1.344880000000000034e-02,2.160632777683427859e-04
5.179999999999999716e+01,1.337419999999999928e-02,2.145580108036055430e-04
5.200000000000000000e+01,1.333680000000000108e-02,1.876996004257868822e-04
5.220000000000000284e+01,1.311580000000000037e-02,1.532107698564302378e-04
5.239999999999999858e+01,1.320780000000000044e-02,1.680765896845839806e-04
5.260000000000000142e+01,1.304720000000000012e-02,1.258278188637155094e-04
5.279999999999999716e+01,1.302419999999999967e-02,1.530122217340822448e-04
5.300000000000000000e+01,1.292379999999999918e-02,1.687525999799707754e-04
5.320000000000000284e+01,1.288960000000000106e-02,2.209951583180047639e-04
